#1
double tab1(35040,14)
#TimeStep in Seconds Outdoor Dry Bulb [Kelvin](TimeStep) DewPoint [Kelvin](TimeStep) Diffuse Solar [W/m2](TimeStep) Direct Solar [W/m2](TimeStep) Qheat [W] Qcool [W] PLigInd [W] PPlu [W] PFan [W] PDX [W] PLigOut [W] Ptot [W] PGas [W]
0 276.45 271.55 0 0 0 0 18715.79094 18715.7982 0 0 0 37431.58914 0
900 275.65 269.65 0 0 0 0 18715.79094 18715.7982 0 0 0 37431.58914 0
1800 274.85 267.75 0 0 0 0 18715.79094 18715.7982 0 0 0 37431.58914 0
2700 274.05 265.85 0 0 0 0 18715.79094 18715.7982 0 0 0 37431.58914 0
3600 274.075 265.575 0 0 0 0 18715.79094 18715.7982 0 0 0 37431.58914 0
4500 274.1 265.3 0 0 0 0 18715.79094 18715.7982 0 0 0 37431.58914 0
5400 274.125 265.025 0 0 0 0 18715.79094 18715.7982 0 0 0 37431.58914 0
6300 274.15 264.75 0 0 0 0 18715.79094 18715.7982 0 0 0 37431.58914 0
7200 274.55 265.025 0 0 0 0 18715.79094 18715.7982 0 0 0 37431.58914 0
8100 274.95 265.3 0 0 0 0 18715.79094 18715.7982 0 0 0 37431.58914 0
9000 275.35 265.575 0 0 0 0 18715.79094 18715.7982 0 0 0 37431.58914 0
9900 275.75 265.85 0 0 0 0 18715.79094 18715.7982 0 0 0 37431.58914 0
10800 275.225 265.15 0 0 0 0 19850.0813 19850.089 0 0 0 39700.1703 0
11700 274.7 264.45 0 0 0 0 19850.0813 19850.089 0 0 0 39700.1703 0
12600 274.175 263.75 0 0 0 0 19850.0813 19850.089 0 0 0 39700.1703 0
13500 273.65 263.05 0 0 0 0 19850.0813 19850.089 0 0 0 39700.1703 0
14400 273.775 263.475 0 0 0 0 20984.37166 20984.3798 0 0 0 41968.75146 0
15300 273.9 263.9 0 0 0 0 20984.37166 20984.3798 0 0 0 41968.75146 0
16200 274.025 264.325 0 0 0 0 20984.37166 20984.3798 0 0 0 41968.75146 0
17100 274.15 264.75 0 0 0 0 20984.37166 20984.3798 0 0 0 41968.75146 0
18000 274.3 265.175 0 0 47497.75354 0 24954.38792 24387.2522 4052.911582 0 0 53394.5517 0
18900 274.45 265.6 0 0 41392.80969 0 24954.38792 24387.2522 3377.570326 0 0 52719.21045 0
19800 274.6 266.025 0 0 40838.03126 0 24954.38792 24387.2522 3375.395171 0 0 52717.03529 0
20700 274.75 266.45 0 0 40860.38641 0 24954.38792 24387.2522 3375.395171 0 0 52717.03529 0
21600 274.325 265.75 0 0 18898.21472 0 36864.4367 36864.451 3474.390601 0 0 77203.2783 0
22500 273.9 265.05 0 0 18850.64396 0 36864.4367 36864.451 3485.201373 0 0 77214.08907 0
23400 273.475 264.35 0 0 19199.21155 0 36864.4367 36864.451 3485.107132 0 0 77213.99483 0
24300 273.05 263.65 11.5 205 15832.96588 0 36864.4367 36864.451 3484.537779 0 0 77213.42548 0
25200 274 263.5 17.25 306 12300.11664 0 40834.45296 41401.6142 3546.817292 0 0 85782.88445 0
26100 274.95 263.35 23 407 10861.87032 0 40834.45296 41401.6142 3554.166613 0 0 85790.23377 0
27000 275.9 263.2 31.25 482.5 9991.62971 0 40834.45296 41401.6142 3560.032022 0 0 85796.09918 0
27900 276.85 263.05 39.5 558 9295.952446 0 40834.45296 41401.6142 3565.761376 0 0 85801.82854 0
28800 278.425 263.65 47.75 633.5 6586.40444 0 45371.6144 45938.7774 3710.587151 0 0 95020.97895 0
29700 280 264.25 56 709 5841.675587 0 45371.6144 45938.7774 3789.761288 0 0 95100.15309 0
30600 281.575 264.85 61 736 5299.753125 0 45371.6144 45938.7774 3886.698217 0 0 95197.09002 0
31500 283.15 265.45 66 763 4696.006115 0 45371.6144 45938.7774 3986.267714 0 0 95296.65951 0
32400 284 265.175 71 790 4753.195973 0 49341.63066 49908.7952 4211.143334 0 0 103461.5692 0
33300 284.85 264.9 76 817 4746.922082 0 49341.63066 49908.7952 4322.448318 0 0 103572.8742 0
34200 285.7 264.625 79 824.75 4719.53201 0 49341.63066 49908.7952 4404.82999 0 0 103655.2559 0
35100 286.55 264.35 82 832.5 4683.596623 0 49341.63066 49908.7952 4478.940707 0 0 103729.3666 0
36000 287.25 264.25 85 840.25 4703.246613 0 52177.35656 52744.5222 4657.091057 0 0 109578.9698 0
36900 287.95 264.15 88 848 4740.427548 0 52177.35656 52744.5222 4740.427548 0 0 109662.3063 0
37800 288.65 264.05 96.5 829 4793.106497 0 52177.35656 52744.5222 4793.106497 0 0 109714.9853 0
38700 289.35 263.95 105 810 4848.881577 0 52177.35656 52744.5222 4848.881577 0 0 109770.7603 0
39600 289.775 263.675 113.5 791 5112.174329 0 54445.93728 55013.1038 5112.174329 0 0 114571.2154 0
40500 290.2 263.4 122 772 5308.79893 5872.147537 54445.93728 55013.1038 5308.79893 1870.084428 0 116637.9244 0
41400 290.625 263.125 114.25 793.75 5717.376927 11135.07279 54445.93728 55013.1038 5717.376927 3506.877173 0 118683.2952 0
42300 291.05 262.85 106.5 815.5 6260.622589 17160.12043 54445.93728 55013.1038 6260.622589 5337.75822 0 121057.4219 0
43200 291.325 263.4 98.75 837.25 6670.173273 21536.55639 55013.08246 55580.2492 6670.173273 6640.145859 0 123903.6508 0
44100 291.6 263.95 91 859 7367.343846 26590.87234 55013.08246 55580.2492 7367.343846 8116.180167 0 126076.8557 0
45000 291.875 264.5 92.5 855.25 8016.008753 31963.92011 55013.08246 55580.2492 8016.008753 9653.790947 0 128263.1314 0
45900 292.15 265.05 94 851.5 8664.957674 37553.32296 55013.08246 55580.2492 8664.957674 11220.3544 0 130478.6437 0
46800 292.3 264.9 95.5 847.75 9892.544114 42622.61006 56147.37282 56714.54 9892.544114 12608.82544 0 135363.2824 0
47700 292.45 264.75 97 844 10592.10649 47050.85182 56147.37282 56714.54 10592.10649 13800.83669 0 137254.856 0
48600 292.6 264.6 97.25 828.5 11139.61796 50963.6824 56147.37282 56714.54 11139.61796 14838.93714 0 138840.4679 0
49500 292.75 264.45 97.5 813 11786.24527 55061.2997 56147.37282 56714.54 11786.24527 15909.98819 0 140558.1463 0
50400 292.6 264.725 97.75 797.5 12267.2447 53834.55292 56147.37282 56147.3946 12267.2447 15584.05672 0 140146.0688 0
51300 292.45 265 98 782 12782.89119 52462.42571 56147.37282 56147.3946 12782.89119 15219.75815 0 140297.4168 0
52200 292.3 265.275 97.75 682.75 12512.88954 49707.0141 56147.37282 56147.3946 12512.88954 14492.83304 0 139300.49 0
53100 292.15 265.55 97.5 583.5 12023.48246 46178.69539 56147.37282 56147.3946 12023.48246 13553.95412 0 137872.204 0
54000 291.875 267.65 97.25 484.25 11408.30644 40358.30429 55580.22764 55580.2492 11408.30644 11977.34325 0 134546.1265 0
54900 291.6 269.75 97 385 10758.73098 34577.82975 55580.22764 55580.2492 10758.73098 10377.59155 0 132296.7994 0
55800 291.325 271.85 76 292.75 9929.048296 28738.26841 55580.22764 55580.2492 9929.048296 8725.494492 0 129815.0196 0
56700 291.05 273.95 55 200.5 8916.119727 22844.77462 55580.22764 55580.2492 8916.119727 7019.480578 0 127096.0771 0
57600 290.775 274.35 34 108.25 7674.91936 16945.40814 52744.50174 52744.5222 7674.91936 5270.781656 0 118434.725 0
58500 290.5 274.75 13 16 6670.947443 11651.83824 52744.50174 52744.5222 6670.947443 3664.865914 0 115824.8373 0
59400 290.225 275.15 9.75 12 6274.597391 7390.321085 52744.50174 52744.5222 6274.597391 2345.723979 0 114109.3453 0
60300 289.95 275.55 0 0 5937.30088 3675.683413 52744.50174 52744.5222 5937.30088 1176.129696 0 112602.4545 0
61200 288.1 275.2 0 0 5027.007371 0 44237.32404 44804.4866 5027.007371 0 0 94068.81801 0
62100 286.25 274.85 0 0 4908.158558 0 44237.32404 44804.4866 4908.158558 0 0 93949.9692 0
63000 284.4 274.5 0 0 4852.530607 0 44237.32404 44804.4866 4852.530607 0 0 93894.34125 0
63900 282.55 274.15 0 0 4801.73733 0 44237.32404 44804.4866 4801.73733 0 0 93843.54797 0
64800 282.125 273.625 0 0 0 0 28924.40418 28924.4154 0 0 0 57848.81958 0
65700 281.7 273.1 0 0 0 0 28924.40418 28924.4154 0 0 0 57848.81958 0
66600 281.275 272.575 0 0 0 0 28924.40418 28924.4154 0 0 0 57848.81958 0
67500 280.85 272.05 0 0 0 0 28924.40418 28924.4154 0 0 0 57848.81958 0
68400 280.7 271.35 0 0 0 0 23252.95238 24387.2522 0 0 0 47640.20458 0
69300 280.55 270.65 0 0 0 0 23252.95238 24387.2522 0 0 0 47640.20458 0
70200 280.4 269.95 0 0 0 0 23252.95238 24387.2522 0 0 0 47640.20458 0
71100 280.25 269.25 0 0 0 0 23252.95238 24387.2522 0 0 0 47640.20458 0
72000 279.575 269.95 0 0 0 0 22685.8072 23252.9614 0 0 0 45938.7686 0
72900 278.9 270.65 0 0 0 0 22685.8072 23252.9614 0 0 0 45938.7686 0
73800 278.225 271.35 0 0 0 0 22685.8072 23252.9614 0 0 0 45938.7686 0
74700 277.55 272.05 0 0 0 0 22685.8072 23252.9614 0 0 0 45938.7686 0
75600 277.675 272.05 0 0 0 0 23252.95238 23252.9614 0 0 0 46505.91378 0
76500 277.8 272.05 0 0 0 0 23252.95238 23252.9614 0 0 0 46505.91378 0
77400 277.925 272.05 0 0 0 0 23252.95238 23252.9614 0 0 0 46505.91378 0
78300 278.05 272.05 0 0 0 0 23252.95238 23252.9614 0 0 0 46505.91378 0
79200 278.075 271.95 0 0 0 0 20417.22648 20984.3798 0 0 0 41401.60628 0
80100 278.1 271.85 0 0 0 0 20417.22648 20984.3798 0 0 0 41401.60628 0
81000 278.125 271.75 0 0 0 0 20417.22648 20984.3798 0 0 0 41401.60628 0
81900 278.15 271.65 0 0 0 0 20417.22648 20984.3798 0 0 0 41401.60628 0
82800 277.925 272.1 0 0 0 0 19282.93612 19850.089 0 0 0 39133.02512 0
83700 277.7 272.55 0 0 0 0 19282.93612 19850.089 0 0 0 39133.02512 0
84600 277.475 273 0 0 0 0 19282.93612 19850.089 0 0 0 39133.02512 0
85500 277.25 273.45 0 0 0 0 19282.93612 19850.089 0 0 0 39133.02512 0
86400 276.925 272.425 0 0 0 0 18715.79094 18715.7982 0 0 0 37431.58914 0
87300 276.6 271.4 0 0 0 0 18715.79094 18715.7982 0 0 0 37431.58914 0
88200 276.275 270.375 0 0 0 0 18715.79094 18715.7982 0 0 0 37431.58914 0
89100 275.95 269.35 0 0 0 0 18715.79094 18715.7982 0 0 0 37431.58914 0
90000 275.65 269.725 0 0 0 0 18715.79094 18715.7982 0 0 0 37431.58914 0
90900 275.35 270.1 0 0 0 0 18715.79094 18715.7982 0 0 0 37431.58914 0
91800 275.05 270.475 0 0 0 0 18715.79094 18715.7982 0 0 0 37431.58914 0
92700 274.75 270.85 0 0 0 0 18715.79094 18715.7982 0 0 0 37431.58914 0
93600 274.6 271.675 0 0 0 0 18715.79094 18715.7982 0 0 0 37431.58914 0
94500 274.45 272.5 0 0 0 0 18715.79094 18715.7982 0 0 0 37431.58914 0
95400 274.3 273.325 0 0 0 0 18715.79094 18715.7982 0 0 0 37431.58914 0
96300 274.15 274.1499992 0 0 0 0 18715.79094 18715.7982 0 0 0 37431.58914 0
97200 274.025 274.0249979 0 0 0 0 19850.0813 19850.089 0 0 0 39700.1703 0
98100 273.9 273.8999968 0 0 0 0 19850.0813 19850.089 0 0 0 39700.1703 0
99000 273.775 273.774999 0 0 0 0 19850.0813 19850.089 0 0 0 39700.1703 0
99900 273.65 273.6499968 0 0 0 0 19850.0813 19850.089 0 0 0 39700.1703 0
100800 273.5 273.4999981 0 0 0 0 20984.37166 20984.3798 0 0 0 41968.75146 0
101700 273.35 273.3499977 0 0 0 0 20984.37166 20984.3798 0 0 0 41968.75146 0
102600 273.2 273.1999954 0 0 0 0 20984.37166 20984.3798 0 0 0 41968.75146 0
103500 273.05 273.0499979 0 0 0 0 20984.37166 20984.3798 0 0 0 41968.75146 0
104400 273.05 272.925 0 0 50081.39111 0 24954.38792 24387.2522 4070.860234 0 0 53412.50035 0
105300 273.05 272.8 0 0 43541.50063 0 24954.38792 24387.2522 3378.910472 0 0 52720.55059 0
106200 273.05 272.675 0 0 43200.86388 0 24954.38792 24387.2522 3375.395171 0 0 52717.03529 0
107100 273.05 272.55 0 0 43495.36947 0 24954.38792 24387.2522 3375.395171 0 0 52717.03529 0
108000 273.2 272.675 0 0 19516.23003 0 36864.4367 36864.451 3474.54172 0 0 77203.42942 0
108900 273.35 272.8 0 0 19083.81586 0 36864.4367 36864.451 3485.108237 0 0 77213.99594 0
109800 273.5 272.925 0 0 19026.46118 0 36864.4367 36864.451 3484.917109 0 0 77213.80481 0
110700 273.65 273.05 11 247.5 15094.23591 0 36864.4367 36864.451 3484.936362 0 0 77213.82406 0
111600 274.05 272.5 16.5 369.75 11819.71039 0 40834.45296 41401.6142 3546.888967 0 0 85782.95613 0
112500 274.45 271.95 22 492 10525.06949 0 40834.45296 41401.6142 3555.447299 0 0 85791.51446 0
113400 274.85 271.4 35.25 560 9728.687376 0 40834.45296 41401.6142 3562.017825 0 0 85798.08498 0
114300 275.25 270.85 48.5 628 9181.457028 0 40834.45296 41401.6142 3568.348429 0 0 85804.41559 0
115200 276.925 271.3 61.75 696 6635.141841 0 45371.6144 45938.7774 3749.511583 0 0 95059.90338 0
116100 278.6 271.75 75 764 5843.000252 0 45371.6144 45938.7774 3872.074762 0 0 95182.46656 0
117000 280.275 272.2 84 792.5 5258.566328 0 45371.6144 45938.7774 3990.070179 0 0 95300.46198 0
117900 281.95 272.65 93 821 4779.541867 0 45371.6144 45938.7774 4104.877751 0 0 95415.26955 0
118800 283.075 272.5 102 849.5 4830.860895 0 49341.63066 49908.7952 4346.354573 0 0 103596.7804 0
119700 284.2 272.35 111 878 4816.819001 0 49341.63066 49908.7952 4471.494658 0 0 103721.9205 0
120600 285.325 272.2 104 917.75 4790.041018 0 49341.63066 49908.7952 4571.690381 0 0 103822.1162 0
121500 286.45 272.05 97 957.5 4780.778356 0 49341.63066 49908.7952 4674.56488 0 0 103924.9907 0
122400 287.15 272.075 90 997.25 4858.301763 0 52177.35656 52744.5222 4858.301763 0 0 109780.1805 0
123300 287.85 272.1 83 1037 4941.87585 0 52177.35656 52744.5222 4941.87585 0 0 109863.7546 0
124200 288.55 272.125 85 1041.5 5017.688339 0 52177.35656 52744.5222 5017.688339 0 0 109939.5671 0
125100 289.25 272.15 87 1046 5151.066008 0 52177.35656 52744.5222 5151.066008 0 0 110072.9448 0
126000 289.525 272.025 89 1050.5 5580.240858 0 54445.93728 55013.1038 5580.240858 0 0 115039.2819 0
126900 289.8 271.9 91 1055 6170.105067 1593.572105 54445.93728 55013.1038 6170.105067 512.2543431 0 116141.4005 0
127800 290.075 271.775 90.75 1054.5 6878.301698 5560.794884 54445.93728 55013.1038 6878.301698 1771.996225 0 118109.339 0
128700 290.35 271.65 90.5 1054 7673.320167 10035.68481 54445.93728 55013.1038 7673.320167 3167.220832 0 120299.5821 0
129600 290.925 271.225 90.25 1053.5 8252.779544 19045.70219 55013.08246 55580.2492 8252.779544 5898.736718 0 124744.8479 0
130500 291.5 270.8 90 1053 9157.074415 28965.84084 55013.08246 55580.2492 9157.074415 8794.221267 0 128544.6273 0
131400 292.075 270.375 87.5 1047 10039.1181 39729.73737 55013.08246 55580.2492 10039.1181 11813.95096 0 132446.4007 0
132300 292.65 269.95 85 1041 10941.90027 51146.35857 55013.08246 55580.2492 10941.90027 14889.74062 0 136424.9726 0
133200 292.775 270.375 82.5 1035 12469.98428 56824.74824 56147.37282 56714.54 12469.98428 16363.24042 0 141695.1375 0
134100 292.9 270.8 80 1029 13267.51826 61466.32676 56147.37282 56714.54 13267.51826 17546.30783 0 143675.7389 0
135000 293.025 271.225 87.25 980 13868.78473 65350.37806 56147.37282 56714.54 13868.78473 18522.78829 0 145253.4858 0
135900 293.15 271.65 94.5 931 14177.93081 68590.64353 56147.37282 56714.54 14177.93081 19329.21944 0 146369.0631 0
136800 292.875 272.2 101.75 882 14477.58112 64336.50824 56147.37282 56147.3946 14477.58112 18259.34639 0 145031.6949 0
137700 292.6 272.75 109 833 14772.66502 59971.23476 56147.37282 56147.3946 14772.66502 17148.21188 0 144215.6443 0
138600 292.325 273.3 107 738 14529.08419 54690.87756 56147.37282 56147.3946 14529.08419 15787.51156 0 142611.3632 0
139500 292.05 273.85 105 643 14016.95894 48771.06177 56147.37282 56147.3946 14016.95894 14234.41583 0 140546.1422 0
140400 291.925 273.7 103 548 13238.05023 45112.9571 55580.22764 55580.2492 13238.05023 13260.05393 0 137658.581 0
141300 291.8 273.55 101 453 12498.90766 41432.88843 55580.22764 55580.2492 12498.90766 12266.13557 0 135925.5201 0
142200 291.675 273.4 79.75 354.5 11480.32757 37457.58244 55580.22764 55580.2492 11480.32757 11176.87749 0 133817.6819 0
143100 291.55 273.25 58.5 256 10434.42546 33371.59485 55580.22764 55580.2492 10434.42546 10039.54726 0 131634.4496 0
144000 290.275 273.375 37.25 157.5 8983.100252 11612.19056 52744.50174 52744.5222 8983.100252 3651.848744 0 118123.9729 0
144900 289 273.5 16 59 7646.236324 0 52744.50174 52744.5222 7646.236324 0 0 113135.2603 0
145800 287.725 273.625 12 44.25 7059.147033 0 52744.50174 52744.5222 7059.147033 0 0 112548.171 0
146700 286.45 273.75 0 0 6420.914365 0 52744.50174 52744.5222 6420.914365 0 0 111909.9383 0
147600 285.875 273.6 0 0 5313.936314 0 44237.32404 44804.4866 5313.936314 0 0 94355.74695 0
148500 285.3 273.45 0 0 5092.789922 0 44237.32404 44804.4866 5092.789922 0 0 94134.60056 0
149400 284.725 273.3 0 0 4978.721893 0 44237.32404 44804.4866 4978.721893 0 0 94020.53253 0
150300 284.15 273.15 0 0 4921.856999 0 44237.32404 44804.4866 4921.856999 0 0 93963.66764 0
151200 283.6 273.7 0 0 0 0 28924.40418 28924.4154 0 0 0 57848.81958 0
152100 283.05 274.25 0 0 0 0 28924.40418 28924.4154 0 0 0 57848.81958 0
153000 282.5 274.8 0 0 0 0 28924.40418 28924.4154 0 0 0 57848.81958 0
153900 281.95 275.35 0 0 0 0 28924.40418 28924.4154 0 0 0 57848.81958 0
154800 281.675 275.075 0 0 0 0 23252.95238 24387.2522 0 0 0 47640.20458 0
155700 281.4 274.8 0 0 0 0 23252.95238 24387.2522 0 0 0 47640.20458 0
156600 281.125 274.525 0 0 0 0 23252.95238 24387.2522 0 0 0 47640.20458 0
157500 280.85 274.25 0 0 0 0 23252.95238 24387.2522 0 0 0 47640.20458 0
158400 280.575 273.975 0 0 0 0 22685.8072 23252.9614 0 0 0 45938.7686 0
159300 280.3 273.7 0 0 0 0 22685.8072 23252.9614 0 0 0 45938.7686 0
160200 280.025 273.425 0 0 0 0 22685.8072 23252.9614 0 0 0 45938.7686 0
161100 279.75 273.15 0 0 0 0 22685.8072 23252.9614 0 0 0 45938.7686 0
162000 279.175 272.725 0 0 0 0 23252.95238 23252.9614 0 0 0 46505.91378 0
162900 278.6 272.3 0 0 0 0 23252.95238 23252.9614 0 0 0 46505.91378 0
163800 278.025 271.875 0 0 0 0 23252.95238 23252.9614 0 0 0 46505.91378 0
164700 277.45 271.45 0 0 0 0 23252.95238 23252.9614 0 0 0 46505.91378 0
165600 276.975 271.25 0 0 0 0 20417.22648 20984.3798 0 0 0 41401.60628 0
166500 276.5 271.05 0 0 0 0 20417.22648 20984.3798 0 0 0 41401.60628 0
167400 276.025 270.85 0 0 0 0 20417.22648 20984.3798 0 0 0 41401.60628 0
168300 275.55 270.65 0 0 0 0 20417.22648 20984.3798 0 0 0 41401.60628 0
169200 275.225 270.025 0 0 0 0 19282.93612 19850.089 0 0 0 39133.02512 0
170100 274.9 269.4 0 0 0 0 19282.93612 19850.089 0 0 0 39133.02512 0
171000 274.575 268.775 0 0 0 0 19282.93612 19850.089 0 0 0 39133.02512 0
171900 274.25 268.15 0 0 0 0 19282.93612 19850.089 0 0 0 39133.02512 0
172800 274.125 268.15 0 0 0 0 18715.79094 18715.7982 0 0 0 37431.58914 0
173700 274 268.15 0 0 0 0 18715.79094 18715.7982 0 0 0 37431.58914 0
174600 273.875 268.15 0 0 0 0 18715.79094 18715.7982 0 0 0 37431.58914 0
175500 273.75 268.15 0 0 0 0 18715.79094 18715.7982 0 0 0 37431.58914 0
176400 273.85 268.275 0 0 0 0 18715.79094 18715.7982 0 0 0 37431.58914 0
177300 273.95 268.4 0 0 0 0 18715.79094 18715.7982 0 0 0 37431.58914 0
178200 274.05 268.525 0 0 0 0 18715.79094 18715.7982 0 0 0 37431.58914 0
179100 274.15 268.65 0 0 0 0 18715.79094 18715.7982 0 0 0 37431.58914 0
180000 274.3 268.925 0 0 0 0 18715.79094 18715.7982 0 0 0 37431.58914 0
180900 274.45 269.2 0 0 0 0 18715.79094 18715.7982 0 0 0 37431.58914 0
181800 274.6 269.475 0 0 0 0 18715.79094 18715.7982 0 0 0 37431.58914 0
182700 274.75 269.75 0 0 0 0 18715.79094 18715.7982 0 0 0 37431.58914 0
183600 274.475 269.475 0 0 0 0 19850.0813 19850.089 0 0 0 39700.1703 0
184500 274.2 269.2 0 0 0 0 19850.0813 19850.089 0 0 0 39700.1703 0
185400 273.925 268.925 0 0 0 0 19850.0813 19850.089 0 0 0 39700.1703 0
186300 273.65 268.65 0 0 0 0 19850.0813 19850.089 0 0 0 39700.1703 0
187200 273.65 268.65 0 0 0 0 20984.37166 20984.3798 0 0 0 41968.75146 0
188100 273.65 268.65 0 0 0 0 20984.37166 20984.3798 0 0 0 41968.75146 0
189000 273.65 268.65 0 0 0 0 20984.37166 20984.3798 0 0 0 41968.75146 0
189900 273.65 268.65 0 0 0 0 20984.37166 20984.3798 0 0 0 41968.75146 0
190800 273.375 268.5 0 0 47880.20131 0 24954.38792 24387.2522 4090.368698 0 0 53432.00882 0
191700 273.1 268.35 0 0 42656.44364 0 24954.38792 24387.2522 3387.918796 0 0 52729.55892 0
192600 272.825 268.2 0 0 43007.32689 0 24954.38792 24387.2522 3375.395171 0 0 52717.03529 0
193500 272.55 268.05 0 0 43905.50517 0 24954.38792 24387.2522 3375.395171 0 0 52717.03529 0
194400 272.675 268.325 0 0 19481.53424 0 36864.4367 36864.451 3484.390651 0 0 77213.27835 0
195300 272.8 268.6 0 0 19137.53751 0 36864.4367 36864.451 3493.525591 0 0 77222.41329 0
196200 272.925 268.875 0 0 19193.78965 0 36864.4367 36864.451 3492.633276 0 0 77221.52098 0
197100 273.05 269.15 14 193.5 15537.72307 0 36864.4367 36864.451 3491.69753 0 0 77220.58523 0
198000 273.6 269.575 21 289.25 12091.60138 0 40834.45296 41401.6142 3553.266602 0 0 85789.33376 0
198900 274.15 270 28 385 10761.02962 0 40834.45296 41401.6142 3560.664196 0 0 85796.73136 0
199800 274.7 270.425 45.75 454 9786.157096 0 40834.45296 41401.6142 3566.178519 0 0 85802.24568 0
200700 275.25 270.85 63.5 523 8963.046423 0 40834.45296 41401.6142 3571.647381 0 0 85807.71454 0
201600 276.25 270.35 81.25 592 6402.998159 0 45371.6144 45938.7774 3710.184916 0 0 95020.57672 0
202500 277.25 269.85 99 661 5661.02494 0 45371.6144 45938.7774 3792.622919 0 0 95103.01472 0
