#1
double tab1(35040,14)
#TimeStep in Seconds Outdoor Dry Bulb [Kelvin](TimeStep) DewPoint [Kelvin](TimeStep) Diffuse Solar [W/m2](TimeStep) Direct Solar [W/m2](TimeStep) Qheat [W] Qcool [W] PLigInd [W] PPlu [W] PFan [W] PDX [W] PLigOut [W] Ptot [W] PGas [W]
0 276.45 271.55 0 0 0 0 31057.9506 10346.238 0 0 0 41404.1886 0
900 275.65 269.65 0 0 0 0 31057.9506 10346.238 0 0 0 41404.1886 0
1800 274.85 267.75 0 0 0 0 31057.9506 10346.238 0 0 0 41404.1886 0
2700 274.05 265.85 0 0 0 0 31057.9506 10346.238 0 0 0 41404.1886 0
3600 274.075 265.575 0 0 0 0 31057.9506 10346.238 0 0 0 41404.1886 0
4500 274.1 265.3 0 0 0 0 31057.9506 10346.238 0 0 0 41404.1886 0
5400 274.125 265.025 0 0 0 0 31057.9506 10346.238 0 0 0 41404.1886 0
6300 274.15 264.75 0 0 0 0 31057.9506 10346.238 0 0 0 41404.1886 0
7200 274.55 265.025 0 0 4101.663943 0 31057.9506 10346.238 4101.663943 0 0 45505.85254 0
8100 274.95 265.3 0 0 4101.663943 0 31057.9506 10346.238 4101.663943 0 0 45505.85254 0
9000 275.35 265.575 0 0 4101.663943 0 31057.9506 10346.238 4101.663943 0 0 45505.85254 0
9900 275.75 265.85 0 0 4101.663943 0 31057.9506 10346.238 4101.663943 0 0 45505.85254 0
10800 275.225 265.15 0 0 4101.663943 0 31057.9506 10691.1126 4101.663943 0 0 45850.72714 0
11700 274.7 264.45 0 0 4101.663943 0 31057.9506 10691.1126 4101.663943 0 0 45850.72714 0
12600 274.175 263.75 0 0 4101.663943 0 31057.9506 10691.1126 4101.663943 0 0 45850.72714 0
13500 273.65 263.05 0 0 4101.663943 0 31057.9506 10691.1126 4101.663943 0 0 45850.72714 0
14400 273.775 263.475 0 0 4101.663943 0 31057.9506 11380.8618 4101.663943 0 0 46540.47634 0
15300 273.9 263.9 0 0 4101.663943 0 31057.9506 11380.8618 4101.663943 0 0 46540.47634 0
16200 274.025 264.325 0 0 4101.663943 0 31057.9506 11380.8618 4101.663943 0 0 46540.47634 0
17100 274.15 264.75 0 0 4101.663943 0 31057.9506 11380.8618 4101.663943 0 0 46540.47634 0
18000 274.3 265.175 0 0 75815.32548 0 41410.6008 11725.7364 4101.663943 0 0 57238.00114 0
18900 274.45 265.6 0 0 55113.84693 0 41410.6008 11725.7364 4101.663943 0 0 57238.00114 0
19800 274.6 266.025 0 0 51989.18105 0 41410.6008 11725.7364 4101.663943 0 0 57238.00114 0
20700 274.75 266.45 0 0 50721.36023 0 41410.6008 11725.7364 4101.663943 0 0 57238.00114 0
21600 274.325 265.75 0 0 49170.92318 0 45551.66088 15174.4824 4101.663943 0 0 64827.80722 0
22500 273.9 265.05 0 0 49061.5136 0 45551.66088 15174.4824 4101.663943 0 0 64827.80722 0
23400 273.475 264.35 0 0 49231.75487 0 45551.66088 15174.4824 4101.663943 0 0 64827.80722 0
24300 273.05 263.65 11.5 205 44094.04339 0 45551.66088 15174.4824 4101.663943 0 0 64827.80722 0
25200 274 263.5 17.25 306 38199.11264 0 54869.04606 18278.3538 4101.663943 0 0 77249.0638 0
26100 274.95 263.35 23 407 34661.92021 0 54869.04606 18278.3538 4101.663943 0 0 77249.0638 0
27000 275.9 263.2 31.25 482.5 32560.16001 0 54869.04606 18278.3538 4101.663943 0 0 77249.0638 0
27900 276.85 263.05 39.5 558 31131.07327 0 54869.04606 18278.3538 4101.663943 0 0 77249.0638 0
28800 278.425 263.65 47.75 633.5 25360.08413 0 69362.75634 23106.5982 4101.663943 0 0 96571.01848 0
29700 280 264.25 56 709 23082.98043 0 69362.75634 23106.5982 4144.597027 0 0 96613.95157 0
30600 281.575 264.85 61 736 20975.24961 0 69362.75634 23106.5982 4211.538154 0 0 96680.89269 0
31500 283.15 265.45 66 763 18315.41173 0 69362.75634 23106.5982 4326.370175 0 0 96795.72471 0
32400 284 265.175 71 790 15467.99018 0 76609.61148 25520.7204 4434.471605 0 0 106564.8035 0
33300 284.85 264.9 76 817 13525.70312 0 76609.61148 25520.7204 4578.253284 0 0 106708.5852 0
34200 285.7 264.625 79 824.75 11571.49232 0 76609.61148 25520.7204 4685.234508 0 0 106815.5664 0
35100 286.55 264.35 82 832.5 9359.081926 0 76609.61148 25520.7204 4765.753596 0 0 106896.0855 0
36000 287.25 264.25 85 840.25 7175.343497 0 84891.73164 27934.8426 4914.380756 0 0 117740.955 0
36900 287.95 264.15 88 848 6528.457111 0 84891.73164 27934.8426 4982.585673 0 0 117809.1599 0
37800 288.65 264.05 96.5 829 6154.367859 0 84891.73164 27934.8426 5004.30099 0 0 117830.8752 0
38700 289.35 263.95 105 810 5963.584838 0 84891.73164 27934.8426 5019.957735 0 0 117846.532 0
39600 289.775 263.675 113.5 791 5797.666416 0 86962.26168 28969.4664 5077.960062 0 0 121009.6881 0
40500 290.2 263.4 122 772 5652.090921 5653.594386 86962.26168 28969.4664 5071.530197 1805.364486 0 122808.6228 0
41400 290.625 263.125 114.25 793.75 5571.018548 10772.80085 86962.26168 28969.4664 5164.253531 3409.765914 0 124505.7475 0
42300 291.05 262.85 106.5 815.5 5551.995663 16248.86843 86962.26168 28969.4664 5351.691682 5096.170098 0 126379.5899 0
43200 291.325 263.4 98.75 837.25 5665.459424 20146.33675 90068.05674 30004.0902 5575.765021 6278.422049 0 131926.334 0
44100 291.6 263.95 91 859 6011.405472 24848.97545 90068.05674 30004.0902 6011.405472 7684.964424 0 133768.5168 0
45000 291.875 264.5 92.5 855.25 6419.010271 29803.26914 90068.05674 30004.0902 6419.010271 9144.460343 0 135635.6176 0
45900 292.15 265.05 94 851.5 6813.929933 34942.67728 90068.05674 30004.0902 6813.929933 10635.24161 0 137521.3185 0
46800 292.3 264.9 95.5 847.75 7509.689646 39341.17396 92138.58678 30693.8394 7509.689646 11889.34738 0 142231.4632 0
47700 292.45 264.75 97 844 7937.987095 43175.33969 92138.58678 30693.8394 7937.987095 12969.55435 0 143739.9676 0
48600 292.6 264.6 97.25 828.5 8230.640941 46570.90021 92138.58678 30693.8394 8230.640941 13916.81587 0 144979.883 0
49500 292.75 264.45 97.5 813 8571.189762 50112.34765 92138.58678 30693.8394 8571.189762 14894.46908 0 146298.085 0
50400 292.6 264.725 97.75 797.5 9323.995923 49962.49523 95244.38184 31728.4632 9323.995923 14844.04791 0 151140.8889 0
51300 292.45 265 98 782 9894.008467 49249.2969 95244.38184 31728.4632 9894.008467 14640.89971 0 151507.7532 0
52200 292.3 265.275 97.75 682.75 9880.63348 46930.49268 95244.38184 31728.4632 9880.63348 13998.73444 0 150852.213 0
53100 292.15 265.55 97.5 583.5 9656.2346 43848.31328 95244.38184 31728.4632 9656.2346 13141.41643 0 149770.4961 0
54000 291.875 267.65 97.25 484.25 9467.449292 38709.46945 97314.91188 32073.3378 9467.449292 11693.76659 0 150549.4656 0
54900 291.6 269.75 97 385 9096.061726 33321.52591 97314.91188 32073.3378 9096.061726 10152.59385 0 148636.9053 0
55800 291.325 271.85 76 292.75 8566.996971 27737.32682 97314.91188 32073.3378 8566.996971 8528.327148 0 146483.5738 0
56700 291.05 273.95 55 200.5 7866.851908 22054.86827 97314.91188 32073.3378 7866.851908 6845.610284 0 144100.7119 0
57600 290.775 274.35 34 108.25 7196.939293 16654.28019 97314.91188 32418.2124 7196.939293 5216.866699 0 142146.9303 0
58500 290.5 274.75 13 16 6431.900345 11543.52911 97314.91188 32418.2124 6431.900345 3648.002297 0 139813.0269 0
59400 290.225 275.15 9.75 12 6235.970666 7362.734064 97314.91188 32418.2124 6235.970666 2343.8635 0 138312.9584 0
60300 289.95 275.55 0 0 6104.561456 3591.478566 97314.91188 32418.2124 6104.561456 1151.031719 0 136988.7175 0
61200 288.1 275.2 0 0 5583.188836 0 86962.26168 31038.714 5583.188836 0 0 123584.1645 0
62100 286.25 274.85 0 0 5522.348788 0 86962.26168 31038.714 5522.348788 0 0 123523.3245 0
63000 284.4 274.5 0 0 5491.774411 0 86962.26168 31038.714 5491.774411 0 0 123492.7501 0
63900 282.55 274.15 0 0 5460.610462 0 86962.26168 31038.714 5460.610462 0 0 123461.5861 0
64800 282.125 273.625 0 0 0 0 72468.5514 26210.4696 0 0 0 98679.021 0
65700 281.7 273.1 0 0 0 0 72468.5514 26210.4696 0 0 0 98679.021 0
66600 281.275 272.575 0 0 0 0 72468.5514 26210.4696 0 0 0 98679.021 0
67500 280.85 272.05 0 0 0 0 72468.5514 26210.4696 0 0 0 98679.021 0
68400 280.7 271.35 0 0 0 0 60045.37116 20347.6014 0 0 0 80392.97256 0
69300 280.55 270.65 0 0 0 0 60045.37116 20347.6014 0 0 0 80392.97256 0
70200 280.4 269.95 0 0 0 0 60045.37116 20347.6014 0 0 0 80392.97256 0
71100 280.25 269.25 0 0 0 0 60045.37116 20347.6014 0 0 0 80392.97256 0
72000 279.575 269.95 0 0 0 0 54869.04606 18623.2284 0 0 0 73492.27446 0
72900 278.9 270.65 0 0 0 0 54869.04606 18623.2284 0 0 0 73492.27446 0
73800 278.225 271.35 0 0 0 0 54869.04606 18623.2284 0 0 0 73492.27446 0
74700 277.55 272.05 0 0 0 0 54869.04606 18623.2284 0 0 0 73492.27446 0
75600 277.675 272.05 0 0 0 0 49692.72096 16553.9808 0 0 0 66246.70176 0
76500 277.8 272.05 0 0 0 0 49692.72096 16553.9808 0 0 0 66246.70176 0
77400 277.925 272.05 0 0 0 0 49692.72096 16553.9808 0 0 0 66246.70176 0
78300 278.05 272.05 0 0 0 0 49692.72096 16553.9808 0 0 0 66246.70176 0
79200 278.075 271.95 0 0 0 0 42445.86582 14139.8586 0 0 0 56585.72442 0
80100 278.1 271.85 0 0 0 0 42445.86582 14139.8586 0 0 0 56585.72442 0
81000 278.125 271.75 0 0 0 0 42445.86582 14139.8586 0 0 0 56585.72442 0
81900 278.15 271.65 0 0 0 0 42445.86582 14139.8586 0 0 0 56585.72442 0
82800 277.925 272.1 0 0 0 0 35199.01068 11725.7364 0 0 0 46924.74708 0
83700 277.7 272.55 0 0 0 0 35199.01068 11725.7364 0 0 0 46924.74708 0
84600 277.475 273 0 0 0 0 35199.01068 11725.7364 0 0 0 46924.74708 0
85500 277.25 273.45 0 0 0 0 35199.01068 11725.7364 0 0 0 46924.74708 0
86400 276.925 272.425 0 0 0 0 31057.9506 10346.238 0 0 0 41404.1886 0
87300 276.6 271.4 0 0 0 0 31057.9506 10346.238 0 0 0 41404.1886 0
88200 276.275 270.375 0 0 0 0 31057.9506 10346.238 0 0 0 41404.1886 0
89100 275.95 269.35 0 0 0 0 31057.9506 10346.238 0 0 0 41404.1886 0
90000 275.65 269.725 0 0 0 0 31057.9506 10346.238 0 0 0 41404.1886 0
90900 275.35 270.1 0 0 0 0 31057.9506 10346.238 0 0 0 41404.1886 0
91800 275.05 270.475 0 0 0 0 31057.9506 10346.238 0 0 0 41404.1886 0
92700 274.75 270.85 0 0 0 0 31057.9506 10346.238 0 0 0 41404.1886 0
93600 274.6 271.675 0 0 4101.663943 0 31057.9506 10346.238 4101.663943 0 0 45505.85254 0
94500 274.45 272.5 0 0 4101.663943 0 31057.9506 10346.238 4101.663943 0 0 45505.85254 0
95400 274.3 273.325 0 0 4101.663943 0 31057.9506 10346.238 4101.663943 0 0 45505.85254 0
96300 274.15 274.1499992 0 0 4101.663943 0 31057.9506 10346.238 4101.663943 0 0 45505.85254 0
97200 274.025 274.0249979 0 0 4101.663943 0 31057.9506 10691.1126 4101.663943 0 0 45850.72714 0
98100 273.9 273.8999968 0 0 4101.663943 0 31057.9506 10691.1126 4101.663943 0 0 45850.72714 0
99000 273.775 273.774999 0 0 4101.663943 0 31057.9506 10691.1126 4101.663943 0 0 45850.72714 0
99900 273.65 273.6499968 0 0 4101.663943 0 31057.9506 10691.1126 4101.663943 0 0 45850.72714 0
100800 273.5 273.4999981 0 0 4101.663943 0 31057.9506 11380.8618 4101.663943 0 0 46540.47634 0
101700 273.35 273.3499977 0 0 4101.663943 0 31057.9506 11380.8618 4101.663943 0 0 46540.47634 0
102600 273.2 273.1999954 0 0 4101.663943 0 31057.9506 11380.8618 4101.663943 0 0 46540.47634 0
103500 273.05 273.0499979 0 0 4101.663943 0 31057.9506 11380.8618 4101.663943 0 0 46540.47634 0
104400 273.05 272.925 0 0 76425.41211 0 41410.6008 11725.7364 4101.663943 0 0 57238.00114 0
105300 273.05 272.8 0 0 55759.95817 0 41410.6008 11725.7364 4101.663943 0 0 57238.00114 0
106200 273.05 272.675 0 0 52834.98564 0 41410.6008 11725.7364 4101.663943 0 0 57238.00114 0
107100 273.05 272.55 0 0 51768.82225 0 41410.6008 11725.7364 4101.663943 0 0 57238.00114 0
108000 273.2 272.675 0 0 49794.17756 0 45551.66088 15174.4824 4101.663943 0 0 64827.80722 0
108900 273.35 272.8 0 0 49235.67721 0 45551.66088 15174.4824 4101.663943 0 0 64827.80722 0
109800 273.5 272.925 0 0 48925.04649 0 45551.66088 15174.4824 4101.663943 0 0 64827.80722 0
110700 273.65 273.05 11 247.5 42478.81413 0 45551.66088 15174.4824 4101.663943 0 0 64827.80722 0
111600 274.05 272.5 16.5 369.75 37021.55897 0 54869.04606 18278.3538 4101.663943 0 0 77249.0638 0
112500 274.45 271.95 22 492 33686.84607 0 54869.04606 18278.3538 4101.663943 0 0 77249.0638 0
113400 274.85 271.4 35.25 560 32084.7503 0 54869.04606 18278.3538 4101.663943 0 0 77249.0638 0
114300 275.25 270.85 48.5 628 30950.35314 0 54869.04606 18278.3538 4101.663943 0 0 77249.0638 0
115200 276.925 271.3 61.75 696 25013.26889 0 69362.75634 23106.5982 4114.460097 0 0 96583.81464 0
116100 278.6 271.75 75 764 22576.41093 0 69362.75634 23106.5982 4201.024036 0 0 96670.37858 0
117000 280.275 272.2 84 792.5 20302.12012 0 69362.75634 23106.5982 4335.931522 0 0 96805.28606 0
117900 281.95 272.65 93 821 17616.25958 0 69362.75634 23106.5982 4460.720718 0 0 96930.07526 0
118800 283.075 272.5 102 849.5 14472.25967 0 76609.61148 25520.7204 4591.167521 0 0 106721.4994 0
119700 284.2 272.35 111 878 12422.09115 0 76609.61148 25520.7204 4772.932441 0 0 106903.2643 0
120600 285.325 272.2 104 917.75 10159.87361 0 76609.61148 25520.7204 4898.232332 0 0 107028.5642 0
121500 286.45 272.05 97 957.5 7796.206272 0 76609.61148 25520.7204 5011.276296 0 0 107141.6082 0
122400 287.15 272.075 90 997.25 6689.631857 0 84891.73164 27934.8426 5161.865519 0 0 117988.4398 0
123300 287.85 272.1 83 1037 6426.399145 0 84891.73164 27934.8426 5229.754065 0 0 118056.3283 0
124200 288.55 272.125 85 1041.5 6272.404317 0 84891.73164 27934.8426 5270.614866 0 0 118097.1891 0
125100 289.25 272.15 87 1046 6108.986704 0 84891.73164 27934.8426 5307.997279 0 0 118134.5715 0
126000 289.525 272.025 89 1050.5 5992.819557 0 86962.26168 28969.4664 5371.558409 0 0 121303.2865 0
126900 289.8 271.9 91 1055 5997.930543 0 86962.26168 28969.4664 5620.175293 0 0 121551.9034 0
127800 290.075 271.775 90.75 1054.5 6056.550707 4881.259971 86962.26168 28969.4664 5837.404435 1560.800861 0 123329.9334 0
128700 290.35 271.65 90.5 1054 6367.835786 8891.985918 86962.26168 28969.4664 6367.835786 2823.140191 0 125122.7041 0
129600 290.925 271.225 90.25 1053.5 6820.018683 17631.05577 90068.05674 30004.0902 6820.018683 5514.604567 0 132406.7702 0
130500 291.5 270.8 90 1053 7411.576959 27234.57224 90068.05674 30004.0902 7411.576959 8384.925899 0 135868.6498 0
131400 292.075 270.375 87.5 1047 7972.886197 37507.63748 90068.05674 30004.0902 7972.886197 11361.97893 0 139407.0121 0
132300 292.65 269.95 85 1041 8534.547522 48359.70254 90068.05674 30004.0902 8534.547522 14410.2793 0 143016.9738 0
133200 292.775 270.375 82.5 1035 9383.650027 53139.11389 92138.58678 30693.8394 9383.650027 15714.78839 0 147930.8646 0
134100 292.9 270.8 80 1029 9853.938566 57033.84687 92138.58678 30693.8394 9853.938566 16765.45349 0 149451.8182 0
135000 293.025 271.225 87.25 980 10328.5954 60803.17992 92138.58678 30693.8394 10328.5954 17771.13747 0 150932.1591 0
135900 293.15 271.65 94.5 931 10811.96014 64651.84759 92138.58678 30693.8394 10811.96014 18786.42421 0 152430.8105 0
136800 292.875 272.2 101.75 882 11443.35795 61569.50975 95244.38184 31728.4632 11443.35795 17959.39204 0 156375.595 0
137700 292.6 272.75 109 833 11875.19297 57803.48629 95244.38184 31728.4632 11875.19297 16947.21878 0 155795.2568 0
138600 292.325 273.3 107 738 11868.89734 52856.89275 95244.38184 31728.4632 11868.89734 15609.69067 0 154451.4331 0
139500 292.05 273.85 105 643 11622.24633 47226.45916 95244.38184 31728.4632 11622.24633 14067.19602 0 152662.2874 0
140400 291.925 273.7 103 548 11332.0989 44236.54648 97314.91188 32073.3378 11332.0989 13238.75104 0 153959.0996 0
141300 291.8 273.55 101 453 10873.17081 40977.12673 97314.91188 32073.3378 10873.17081 12327.44368 0 152588.8642 0
142200 291.675 273.4 79.75 354.5 10147.47758 37229.93572 97314.91188 32073.3378 10147.47758 11268.84861 0 150804.5759 0
143100 291.55 273.25 58.5 256 9361.550454 33325.98783 97314.91188 32073.3378 9361.550454 10152.46822 0 148902.2684 0
144000 290.275 273.375 37.25 157.5 8544.341545 10949.6272 97314.91188 32418.2124 8544.341545 3463.211502 0 141740.6773 0
144900 289 273.5 16 59 7472.884798 0 97314.91188 32418.2124 7472.884798 0 0 137206.0091 0
145800 287.725 273.625 12 44.25 7009.346024 0 97314.91188 32418.2124 7009.346024 0 0 136742.4703 0
146700 286.45 273.75 0 0 6612.144833 0 97314.91188 32418.2124 6612.144833 0 0 136345.2691 0
147600 285.875 273.6 0 0 5882.367919 0 86962.26168 31038.714 5882.367919 0 0 123883.3436 0
148500 285.3 273.45 0 0 5794.068274 0 86962.26168 31038.714 5794.068274 0 0 123795.044 0
149400 284.725 273.3 0 0 5748.217108 0 86962.26168 31038.714 5748.217108 0 0 123749.1928 0
150300 284.15 273.15 0 0 5704.926305 0 86962.26168 31038.714 5704.926305 0 0 123705.902 0
151200 283.6 273.7 0 0 0 0 72468.5514 26210.4696 0 0 0 98679.021 0
152100 283.05 274.25 0 0 0 0 72468.5514 26210.4696 0 0 0 98679.021 0
153000 282.5 274.8 0 0 0 0 72468.5514 26210.4696 0 0 0 98679.021 0
153900 281.95 275.35 0 0 0 0 72468.5514 26210.4696 0 0 0 98679.021 0
154800 281.675 275.075 0 0 0 0 60045.37116 20347.6014 0 0 0 80392.97256 0
155700 281.4 274.8 0 0 0 0 60045.37116 20347.6014 0 0 0 80392.97256 0
156600 281.125 274.525 0 0 0 0 60045.37116 20347.6014 0 0 0 80392.97256 0
157500 280.85 274.25 0 0 0 0 60045.37116 20347.6014 0 0 0 80392.97256 0
158400 280.575 273.975 0 0 0 0 54869.04606 18623.2284 0 0 0 73492.27446 0
159300 280.3 273.7 0 0 0 0 54869.04606 18623.2284 0 0 0 73492.27446 0
160200 280.025 273.425 0 0 0 0 54869.04606 18623.2284 0 0 0 73492.27446 0
161100 279.75 273.15 0 0 0 0 54869.04606 18623.2284 0 0 0 73492.27446 0
162000 279.175 272.725 0 0 0 0 49692.72096 16553.9808 0 0 0 66246.70176 0
162900 278.6 272.3 0 0 0 0 49692.72096 16553.9808 0 0 0 66246.70176 0
163800 278.025 271.875 0 0 0 0 49692.72096 16553.9808 0 0 0 66246.70176 0
164700 277.45 271.45 0 0 0 0 49692.72096 16553.9808 0 0 0 66246.70176 0
165600 276.975 271.25 0 0 0 0 42445.86582 14139.8586 0 0 0 56585.72442 0
166500 276.5 271.05 0 0 0 0 42445.86582 14139.8586 0 0 0 56585.72442 0
167400 276.025 270.85 0 0 0 0 42445.86582 14139.8586 0 0 0 56585.72442 0
168300 275.55 270.65 0 0 0 0 42445.86582 14139.8586 0 0 0 56585.72442 0
169200 275.225 270.025 0 0 0 0 35199.01068 11725.7364 0 0 0 46924.74708 0
170100 274.9 269.4 0 0 0 0 35199.01068 11725.7364 0 0 0 46924.74708 0
171000 274.575 268.775 0 0 0 0 35199.01068 11725.7364 0 0 0 46924.74708 0
171900 274.25 268.15 0 0 0 0 35199.01068 11725.7364 0 0 0 46924.74708 0
172800 274.125 268.15 0 0 0 0 31057.9506 10346.238 0 0 0 41404.1886 0
173700 274 268.15 0 0 0 0 31057.9506 10346.238 0 0 0 41404.1886 0
174600 273.875 268.15 0 0 0 0 31057.9506 10346.238 0 0 0 41404.1886 0
175500 273.75 268.15 0 0 0 0 31057.9506 10346.238 0 0 0 41404.1886 0
176400 273.85 268.275 0 0 0 0 31057.9506 10346.238 0 0 0 41404.1886 0
177300 273.95 268.4 0 0 0 0 31057.9506 10346.238 0 0 0 41404.1886 0
178200 274.05 268.525 0 0 0 0 31057.9506 10346.238 0 0 0 41404.1886 0
179100 274.15 268.65 0 0 0 0 31057.9506 10346.238 0 0 0 41404.1886 0
180000 274.3 268.925 0 0 4101.663943 0 31057.9506 10346.238 4101.663943 0 0 45505.85254 0
180900 274.45 269.2 0 0 4101.663943 0 31057.9506 10346.238 4101.663943 0 0 45505.85254 0
181800 274.6 269.475 0 0 4101.663943 0 31057.9506 10346.238 4101.663943 0 0 45505.85254 0
182700 274.75 269.75 0 0 4101.663943 0 31057.9506 10346.238 4101.663943 0 0 45505.85254 0
183600 274.475 269.475 0 0 4101.663943 0 31057.9506 10691.1126 4101.663943 0 0 45850.72714 0
184500 274.2 269.2 0 0 4101.663943 0 31057.9506 10691.1126 4101.663943 0 0 45850.72714 0
185400 273.925 268.925 0 0 4101.663943 0 31057.9506 10691.1126 4101.663943 0 0 45850.72714 0
186300 273.65 268.65 0 0 4101.663943 0 31057.9506 10691.1126 4101.663943 0 0 45850.72714 0
187200 273.65 268.65 0 0 4101.663943 0 31057.9506 11380.8618 4101.663943 0 0 46540.47634 0
188100 273.65 268.65 0 0 4101.663943 0 31057.9506 11380.8618 4101.663943 0 0 46540.47634 0
189000 273.65 268.65 0 0 4101.663943 0 31057.9506 11380.8618 4101.663943 0 0 46540.47634 0
189900 273.65 268.65 0 0 4101.663943 0 31057.9506 11380.8618 4101.663943 0 0 46540.47634 0
190800 273.375 268.5 0 0 75318.96936 0 41410.6008 11725.7364 4101.663943 0 0 57238.00114 0
191700 273.1 268.35 0 0 55316.23057 0 41410.6008 11725.7364 4101.663943 0 0 57238.00114 0
192600 272.825 268.2 0 0 52772.33637 0 41410.6008 11725.7364 4101.663943 0 0 57238.00114 0
193500 272.55 268.05 0 0 52064.34967 0 41410.6008 11725.7364 4101.663943 0 0 57238.00114 0
194400 272.675 268.325 0 0 50172.79618 0 45551.66088 15174.4824 4101.663943 0 0 64827.80722 0
195300 272.8 268.6 0 0 49692.56938 0 45551.66088 15174.4824 4101.663943 0 0 64827.80722 0
196200 272.925 268.875 0 0 49493.11558 0 45551.66088 15174.4824 4101.663943 0 0 64827.80722 0
