#1
double tab1(35040,14)
#TimeStep in Seconds Outdoor Dry Bulb [Kelvin](TimeStep) DewPoint [Kelvin](TimeStep) Diffuse Solar [W/m2](TimeStep) Direct Solar [W/m2](TimeStep) Qheat [W] Qcool [W] PLigInd [W] PPlu [W] PFan [W] PDX [W] PLigOut [W] Ptot [W] PGas [W]
0 276.45 271.55 0 0 0 0 24576.292 24576.292 0 0 0 49152.584 0
900 275.65 269.65 0 0 0 0 24576.292 24576.292 0 0 0 49152.584 0
1800 274.85 267.75 0 0 0 0 24576.292 24576.292 0 0 0 49152.584 0
2700 274.05 265.85 0 0 0 0 24576.292 24576.292 0 0 0 49152.584 0
3600 274.075 265.575 0 0 0 0 24576.292 24576.292 0 0 0 49152.584 0
4500 274.1 265.3 0 0 0 0 24576.292 24576.292 0 0 0 49152.584 0
5400 274.125 265.025 0 0 0 0 24576.292 24576.292 0 0 0 49152.584 0
6300 274.15 264.75 0 0 0 0 24576.292 24576.292 0 0 0 49152.584 0
7200 274.55 265.025 0 0 0 0 22685.808 22685.808 0 0 0 45371.616 0
8100 274.95 265.3 0 0 0 0 22685.808 22685.808 0 0 0 45371.616 0
9000 275.35 265.575 0 0 0 0 22685.808 22685.808 0 0 0 45371.616 0
9900 275.75 265.85 0 0 0 0 22685.808 22685.808 0 0 0 45371.616 0
10800 275.225 265.15 0 0 0 0 22685.808 22685.808 0 0 0 45371.616 0
11700 274.7 264.45 0 0 0 0 22685.808 22685.808 0 0 0 45371.616 0
12600 274.175 263.75 0 0 0 0 22685.808 22685.808 0 0 0 45371.616 0
13500 273.65 263.05 0 0 0 0 22685.808 22685.808 0 0 0 45371.616 0
14400 273.775 263.475 0 0 0 0 23631.05 23631.05 0 0 0 47262.1 0
15300 273.9 263.9 0 0 0 0 23631.05 23631.05 0 0 0 47262.1 0
16200 274.025 264.325 0 0 0 0 23631.05 23631.05 0 0 0 47262.1 0
17100 274.15 264.75 0 0 0 0 23631.05 23631.05 0 0 0 47262.1 0
18000 274.3 265.175 0 0 75890.61669 0 25521.534 25521.534 5221.213018 0 0 56264.28102 0
18900 274.45 265.6 0 0 63151.69036 0 25521.534 25521.534 4423.428131 0 0 55466.49613 0
19800 274.6 266.025 0 0 61185.39972 0 25521.534 25521.534 4423.428131 0 0 55466.49613 0
20700 274.75 266.45 0 0 60642.26811 0 25521.534 25521.534 4423.428131 0 0 55466.49613 0
21600 274.325 265.75 0 0 35106.7605 0 41590.648 41590.648 4423.428131 0 0 87604.72413 0
22500 273.9 265.05 0 0 34916.84992 0 41590.648 41590.648 4423.428131 0 0 87604.72413 0
23400 273.475 264.35 0 0 35187.2877 0 41590.648 41590.648 4423.428131 0 0 87604.72413 0
24300 273.05 263.65 11.5 205 30346.77945 0 41590.648 41590.648 4423.428131 0 0 87604.72413 0
25200 274 263.5 17.25 306 23462.37533 0 52933.552 52933.552 4500.442425 0 0 110367.5464 0
26100 274.95 263.35 23 407 20796.01421 0 52933.552 52933.552 4565.10232 0 0 110432.2063 0
27000 275.9 263.2 31.25 482.5 19440.96583 0 52933.552 52933.552 4579.58408 0 0 110446.6881 0
27900 276.85 263.05 39.5 558 18229.79649 0 52933.552 52933.552 4592.638979 0 0 110459.743 0
28800 278.425 263.65 47.75 633.5 12441.10381 0 69002.666 69002.666 5013.204908 0 0 143018.5369 0
29700 280 264.25 56 709 10953.63741 0 69002.666 69002.666 5147.777218 0 0 143153.1092 0
30600 281.575 264.85 61 736 9680.792646 0 69002.666 69002.666 5302.380084 0 0 143307.7121 0
31500 283.15 265.45 66 763 8259.003571 0 69002.666 69002.666 5452.488779 0 0 143457.8208 0
32400 284 265.175 71 790 7086.367314 0 73728.876 73728.876 5685.196127 0 0 153142.9481 0
33300 284.85 264.9 76 817 6728.630451 0 73728.876 73728.876 5875.382126 0 0 153333.1341 0
34200 285.7 264.625 79 824.75 6755.120239 0 73728.876 73728.876 6043.466946 0 0 153501.2189 0
35100 286.55 264.35 82 832.5 6738.996973 0 73728.876 73728.876 6194.736145 0 0 153652.4881 0
36000 287.25 264.25 85 840.25 6806.304025 0 76564.602 76564.602 6473.868849 0 0 159603.0728 0
36900 287.95 264.15 88 848 6781.607203 0 76564.602 76564.602 6623.385356 0 0 159752.5894 0
37800 288.65 264.05 96.5 829 6730.394829 0 76564.602 76564.602 6730.394829 0 0 159859.5988 0
38700 289.35 263.95 105 810 6826.382719 0 76564.602 76564.602 6826.382719 0 0 159955.5867 0
39600 289.775 263.675 113.5 791 7129.68707 1531.043541 80345.57 80345.57 7129.68707 492.620376 0 168313.4474 0
40500 290.2 263.4 122 772 7398.216379 8166.834909 80345.57 80345.57 7398.216379 2598.793481 0 170688.1499 0
41400 290.625 263.125 114.25 793.75 7793.677043 15285.34142 80345.57 80345.57 7793.677043 4808.382954 0 173293.2 0
42300 291.05 262.85 106.5 815.5 8431.174951 22961.13669 80345.57 80345.57 8431.174951 7136.614546 0 176258.9295 0
43200 291.325 263.4 98.75 837.25 8791.407434 28415.57703 81290.812 81290.812 8791.407434 8758.324092 0 180131.3555 0
44100 291.6 263.95 91 859 9639.866407 34844.51513 81290.812 81290.812 9639.866407 10635.43749 0 182856.9279 0
45000 291.875 264.5 92.5 855.25 10423.69865 41722.0386 81290.812 81290.812 10423.69865 12604.32326 0 185609.6459 0
45900 292.15 265.05 94 851.5 11204.78189 48859.29088 81290.812 81290.812 11204.78189 14606.6234 0 188393.0293 0
46800 292.3 264.9 95.5 847.75 12864.28555 55577.11704 82236.054 82236.054 12864.28555 16448.32363 0 193784.7172 0
47700 292.45 264.75 97 844 13689.4153 61224.20037 82236.054 82236.054 13689.4153 17970.33836 0 196131.8617 0
48600 292.6 264.6 97.25 828.5 14368.76382 66216.66507 82236.054 82236.054 14368.76382 19297.15665 0 198138.0285 0
49500 292.75 264.45 97.5 813 15153.6406 71433.22076 82236.054 82236.054 15153.6406 20663.65123 0 200289.3998 0
50400 292.6 264.725 97.75 797.5 15829.62256 69917.04018 82236.054 82236.054 15829.62256 20259.35665 0 200561.0872 0
51300 292.45 265 98 782 16483.89457 68140.98833 82236.054 82236.054 16483.89457 19786.87347 0 200742.876 0
52200 292.3 265.275 97.75 682.75 16285.60008 64797.231 82236.054 82236.054 16285.60008 18902.68229 0 199660.3904 0
53100 292.15 265.55 97.5 583.5 15845.01697 60598.05661 82236.054 82236.054 15845.01697 17783.93872 0 198101.0637 0
54000 291.875 267.65 97.25 484.25 14756.70689 52638.78577 78455.086 78455.086 14756.70689 15628.06577 0 187294.9447 0
54900 291.6 269.75 97 385 14109.04953 45220.80736 78455.086 78455.086 14109.04953 13573.81 0 184593.0315 0
55800 291.325 271.85 76 292.75 13233.00193 37954.02268 78455.086 78455.086 13233.00193 11518.12896 0 181661.3029 0
56700 291.05 273.95 55 200.5 12125.54391 30576.43257 78455.086 78455.086 12125.54391 9385.380729 0 178421.0966 0
57600 290.775 274.35 34 108.25 10299.79536 22689.27621 71838.392 71838.392 10299.79536 7051.754829 0 161028.3342 0
58500 290.5 274.75 13 16 9180.869733 15782.7737 71838.392 71838.392 9180.869733 4959.918541 0 157817.5723 0
59400 290.225 275.15 9.75 12 8732.295195 10210.1179 71838.392 71838.392 8732.295195 3237.873779 0 155646.953 0
60300 289.95 275.55 0 0 8407.805447 5250.80568 71838.392 71838.392 8407.805447 1678.893167 0 153763.4826 0
61200 288.1 275.2 0 0 6530.140574 0 50097.826 50097.826 6530.140574 0 0 106725.7926 0
62100 286.25 274.85 0 0 6320.316994 0 50097.826 50097.826 6320.316994 0 0 106515.969 0
63000 284.4 274.5 0 0 6214.892036 0 50097.826 50097.826 6214.892036 0 0 106410.544 0
63900 282.55 274.15 0 0 6119.644604 0 50097.826 50097.826 6119.644604 0 0 106315.2966 0
64800 282.125 273.625 0 0 0 0 32138.228 32138.228 0 0 0 64276.456 0
65700 281.7 273.1 0 0 0 0 32138.228 32138.228 0 0 0 64276.456 0
66600 281.275 272.575 0 0 0 0 32138.228 32138.228 0 0 0 64276.456 0
67500 280.85 272.05 0 0 0 0 32138.228 32138.228 0 0 0 64276.456 0
68400 280.7 271.35 0 0 0 0 29302.502 29302.502 0 0 0 58605.004 0
69300 280.55 270.65 0 0 0 0 29302.502 29302.502 0 0 0 58605.004 0
70200 280.4 269.95 0 0 0 0 29302.502 29302.502 0 0 0 58605.004 0
71100 280.25 269.25 0 0 0 0 29302.502 29302.502 0 0 0 58605.004 0
72000 279.575 269.95 0 0 0 0 29302.502 29302.502 0 0 0 58605.004 0
72900 278.9 270.65 0 0 0 0 29302.502 29302.502 0 0 0 58605.004 0
73800 278.225 271.35 0 0 0 0 29302.502 29302.502 0 0 0 58605.004 0
74700 277.55 272.05 0 0 0 0 29302.502 29302.502 0 0 0 58605.004 0
75600 277.675 272.05 0 0 0 0 25521.534 25521.534 0 0 0 51043.068 0
76500 277.8 272.05 0 0 0 0 25521.534 25521.534 0 0 0 51043.068 0
77400 277.925 272.05 0 0 0 0 25521.534 25521.534 0 0 0 51043.068 0
78300 278.05 272.05 0 0 0 0 25521.534 25521.534 0 0 0 51043.068 0
79200 278.075 271.95 0 0 0 0 29302.502 29302.502 0 0 0 58605.004 0
80100 278.1 271.85 0 0 0 0 29302.502 29302.502 0 0 0 58605.004 0
81000 278.125 271.75 0 0 0 0 29302.502 29302.502 0 0 0 58605.004 0
81900 278.15 271.65 0 0 0 0 29302.502 29302.502 0 0 0 58605.004 0
82800 277.925 272.1 0 0 0 0 27412.018 27412.018 0 0 0 54824.036 0
83700 277.7 272.55 0 0 0 0 27412.018 27412.018 0 0 0 54824.036 0
84600 277.475 273 0 0 0 0 27412.018 27412.018 0 0 0 54824.036 0
85500 277.25 273.45 0 0 0 0 27412.018 27412.018 0 0 0 54824.036 0
86400 276.925 272.425 0 0 0 0 24576.292 24576.292 0 0 0 49152.584 0
87300 276.6 271.4 0 0 0 0 24576.292 24576.292 0 0 0 49152.584 0
88200 276.275 270.375 0 0 0 0 24576.292 24576.292 0 0 0 49152.584 0
89100 275.95 269.35 0 0 0 0 24576.292 24576.292 0 0 0 49152.584 0
90000 275.65 269.725 0 0 0 0 24576.292 24576.292 0 0 0 49152.584 0
90900 275.35 270.1 0 0 0 0 24576.292 24576.292 0 0 0 49152.584 0
91800 275.05 270.475 0 0 0 0 24576.292 24576.292 0 0 0 49152.584 0
92700 274.75 270.85 0 0 0 0 24576.292 24576.292 0 0 0 49152.584 0
93600 274.6 271.675 0 0 0 0 22685.808 22685.808 0 0 0 45371.616 0
94500 274.45 272.5 0 0 0 0 22685.808 22685.808 0 0 0 45371.616 0
95400 274.3 273.325 0 0 0 0 22685.808 22685.808 0 0 0 45371.616 0
96300 274.15 274.1499992 0 0 0 0 22685.808 22685.808 0 0 0 45371.616 0
97200 274.025 274.0249979 0 0 0 0 22685.808 22685.808 0 0 0 45371.616 0
98100 273.9 273.8999968 0 0 0 0 22685.808 22685.808 0 0 0 45371.616 0
99000 273.775 273.774999 0 0 0 0 22685.808 22685.808 0 0 0 45371.616 0
99900 273.65 273.6499968 0 0 0 0 22685.808 22685.808 0 0 0 45371.616 0
100800 273.5 273.4999981 0 0 0 0 23631.05 23631.05 0 0 0 47262.1 0
101700 273.35 273.3499977 0 0 0 0 23631.05 23631.05 0 0 0 47262.1 0
102600 273.2 273.1999954 0 0 0 0 23631.05 23631.05 0 0 0 47262.1 0
103500 273.05 273.0499979 0 0 0 0 23631.05 23631.05 0 0 0 47262.1 0
104400 273.05 272.925 0 0 79191.51474 0 25521.534 25521.534 5265.807598 0 0 56308.8756 0
105300 273.05 272.8 0 0 65668.3994 0 25521.534 25521.534 4423.428131 0 0 55466.49613 0
106200 273.05 272.675 0 0 63984.98559 0 25521.534 25521.534 4423.428131 0 0 55466.49613 0
107100 273.05 272.55 0 0 63764.51102 0 25521.534 25521.534 4423.428131 0 0 55466.49613 0
108000 273.2 272.675 0 0 35817.49239 0 41590.648 41590.648 4423.428131 0 0 87604.72413 0
108900 273.35 272.8 0 0 35164.92377 0 41590.648 41590.648 4423.428131 0 0 87604.72413 0
109800 273.5 272.925 0 0 34956.57468 0 41590.648 41590.648 4423.428131 0 0 87604.72413 0
110700 273.65 273.05 11 247.5 28898.78788 0 41590.648 41590.648 4423.428131 0 0 87604.72413 0
111600 274.05 272.5 16.5 369.75 22256.59231 0 52933.552 52933.552 4501.54943 0 0 110368.6534 0
112500 274.45 271.95 22 492 20498.6459 0 52933.552 52933.552 4566.982763 0 0 110434.0868 0
113400 274.85 271.4 35.25 560 19283.85384 0 52933.552 52933.552 4583.125955 0 0 110450.23 0
114300 275.25 270.85 48.5 628 18279.19087 0 52933.552 52933.552 4597.34183 0 0 110464.4458 0
115200 276.925 271.3 61.75 696 12289.25996 0 69002.666 69002.666 5065.987607 0 0 143071.3196 0
116100 278.6 271.75 75 764 10731.61819 0 69002.666 69002.666 5256.356615 0 0 143261.6886 0
117000 280.275 272.2 84 792.5 9355.519098 0 69002.666 69002.666 5440.135978 0 0 143445.468 0
117900 281.95 272.65 93 821 8053.497076 0 69002.666 69002.666 5603.31142 0 0 143608.6434 0
118800 283.075 272.5 102 849.5 6880.913294 0 73728.876 73728.876 5895.039732 0 0 153352.7917 0
119700 284.2 272.35 111 878 6884.23368 0 73728.876 73728.876 6124.371673 0 0 153582.1237 0
120600 285.325 272.2 104 917.75 6893.763025 0 73728.876 73728.876 6322.216383 0 0 153779.9684 0
121500 286.45 272.05 97 957.5 6921.063679 0 73728.876 73728.876 6519.611496 0 0 153977.3635 0
122400 287.15 272.075 90 997.25 7014.078174 0 76564.602 76564.602 6812.545393 0 0 159941.7494 0
123300 287.85 272.1 83 1037 7000.524972 0 76564.602 76564.602 6971.043599 0 0 160100.2476 0
124200 288.55 272.125 85 1041.5 7104.488466 0 76564.602 76564.602 7104.488466 0 0 160233.6925 0
125100 289.25 272.15 87 1046 7227.235021 0 76564.602 76564.602 7227.235021 0 0 160356.439 0
126000 289.525 272.025 89 1050.5 7798.690472 0 80345.57 80345.57 7798.690472 0 0 168489.8305 0
126900 289.8 271.9 91 1055 8297.992254 2584.326197 80345.57 80345.57 8297.992254 830.029977 0 169819.1622 0
127800 290.075 271.775 90.75 1054.5 9195.671907 7465.851959 80345.57 80345.57 9195.671907 2378.341017 0 172265.1529 0
128700 290.35 271.65 90.5 1054 10186.74784 13328.60696 80345.57 80345.57 10186.74784 4205.205725 0 175083.0936 0
129600 290.925 271.225 90.25 1053.5 10718.64453 24919.0728 81290.812 81290.812 10718.64453 7718.317466 0 181018.586 0
130500 291.5 270.8 90 1053 11801.67454 37613.34216 81290.812 81290.812 11801.67454 11426.04917 0 185809.3477 0
131400 292.075 270.375 87.5 1047 12839.67592 51384.95858 81290.812 81290.812 12839.67592 15296.19131 0 190717.4912 0
132300 292.65 269.95 85 1041 13901.266 65936.58186 81290.812 81290.812 13901.266 19227.92751 0 195710.8175 0
133200 292.775 270.375 82.5 1035 15931.91256 73408.86634 82236.054 82236.054 15931.91256 21173.14309 0 201577.1637 0
134100 292.9 270.8 80 1029 16854.89953 79266.60467 82236.054 82236.054 16854.89953 22671.80277 0 203998.8103 0
135000 293.025 271.225 87.25 980 17595.5118 84182.59737 82236.054 82236.054 17595.5118 23913.09453 0 205980.7143 0
135900 293.15 271.65 94.5 931 18082.02457 88542.72947 82236.054 82236.054 18082.02457 25002.16778 0 207556.3004 0
136800 292.875 272.2 101.75 882 18569.37623 83276.32328 82236.054 82236.054 18569.37623 23671.65954 0 206713.1438 0
137700 292.6 272.75 109 833 18992.66637 77739.63583 82236.054 82236.054 18992.66637 22257.76135 0 205722.5357 0
138600 292.325 273.3 107 738 18806.48121 71094.23533 82236.054 82236.054 18806.48121 20540.85943 0 203819.4486 0
139500 292.05 273.85 105 643 18343.75537 63741.58844 82236.054 82236.054 18343.75537 18608.72684 0 201424.5902 0
140400 291.925 273.7 103 548 16992.71813 58593.94698 78455.086 78455.086 16992.71813 17236.70685 0 191139.597 0
141300 291.8 273.55 101 453 16258.2015 53924.31268 78455.086 78455.086 16258.2015 15973.5894 0 189141.9629 0
142200 291.675 273.4 79.75 354.5 15173.5225 49201.57095 78455.086 78455.086 15173.5225 14678.48786 0 186762.1824 0
143100 291.55 273.25 58.5 256 14042.94097 44323.41296 78455.086 78455.086 14042.94097 13321.71875 0 184274.8317 0
144000 290.275 273.375 37.25 157.5 11932.87235 15505.82055 71838.392 71838.392 11932.87235 4873.98657 0 160483.6429 0
144900 289 273.5 16 59 10420.6832 0 71838.392 71838.392 10420.6832 0 0 154097.4672 0
145800 287.725 273.625 12 44.25 9775.279084 0 71838.392 71838.392 9775.279084 0 0 153452.0631 0
146700 286.45 273.75 0 0 9027.897022 0 71838.392 71838.392 9027.897022 0 0 152704.681 0
147600 285.875 273.6 0 0 6787.859723 0 50097.826 50097.826 6787.859723 0 0 106983.5117 0
148500 285.3 273.45 0 0 6547.474851 0 50097.826 50097.826 6547.474851 0 0 106743.1269 0
149400 284.725 273.3 0 0 6425.992996 0 50097.826 50097.826 6425.992996 0 0 106621.645 0
150300 284.15 273.15 0 0 6318.270973 0 50097.826 50097.826 6318.270973 0 0 106513.923 0
151200 283.6 273.7 0 0 0 0 32138.228 32138.228 0 0 0 64276.456 0
152100 283.05 274.25 0 0 0 0 32138.228 32138.228 0 0 0 64276.456 0
153000 282.5 274.8 0 0 0 0 32138.228 32138.228 0 0 0 64276.456 0
153900 281.95 275.35 0 0 0 0 32138.228 32138.228 0 0 0 64276.456 0
154800 281.675 275.075 0 0 0 0 29302.502 29302.502 0 0 0 58605.004 0
155700 281.4 274.8 0 0 0 0 29302.502 29302.502 0 0 0 58605.004 0
156600 281.125 274.525 0 0 0 0 29302.502 29302.502 0 0 0 58605.004 0
157500 280.85 274.25 0 0 0 0 29302.502 29302.502 0 0 0 58605.004 0
158400 280.575 273.975 0 0 0 0 29302.502 29302.502 0 0 0 58605.004 0
159300 280.3 273.7 0 0 0 0 29302.502 29302.502 0 0 0 58605.004 0
160200 280.025 273.425 0 0 0 0 29302.502 29302.502 0 0 0 58605.004 0
161100 279.75 273.15 0 0 0 0 29302.502 29302.502 0 0 0 58605.004 0
162000 279.175 272.725 0 0 0 0 25521.534 25521.534 0 0 0 51043.068 0
162900 278.6 272.3 0 0 0 0 25521.534 25521.534 0 0 0 51043.068 0
163800 278.025 271.875 0 0 0 0 25521.534 25521.534 0 0 0 51043.068 0
164700 277.45 271.45 0 0 0 0 25521.534 25521.534 0 0 0 51043.068 0
165600 276.975 271.25 0 0 0 0 29302.502 29302.502 0 0 0 58605.004 0
166500 276.5 271.05 0 0 0 0 29302.502 29302.502 0 0 0 58605.004 0
167400 276.025 270.85 0 0 0 0 29302.502 29302.502 0 0 0 58605.004 0
168300 275.55 270.65 0 0 0 0 29302.502 29302.502 0 0 0 58605.004 0
169200 275.225 270.025 0 0 0 0 27412.018 27412.018 0 0 0 54824.036 0
170100 274.9 269.4 0 0 0 0 27412.018 27412.018 0 0 0 54824.036 0
171000 274.575 268.775 0 0 0 0 27412.018 27412.018 0 0 0 54824.036 0
171900 274.25 268.15 0 0 0 0 27412.018 27412.018 0 0 0 54824.036 0
172800 274.125 268.15 0 0 0 0 24576.292 24576.292 0 0 0 49152.584 0
173700 274 268.15 0 0 0 0 24576.292 24576.292 0 0 0 49152.584 0
174600 273.875 268.15 0 0 0 0 24576.292 24576.292 0 0 0 49152.584 0
175500 273.75 268.15 0 0 0 0 24576.292 24576.292 0 0 0 49152.584 0
176400 273.85 268.275 0 0 0 0 24576.292 24576.292 0 0 0 49152.584 0
177300 273.95 268.4 0 0 0 0 24576.292 24576.292 0 0 0 49152.584 0
178200 274.05 268.525 0 0 0 0 24576.292 24576.292 0 0 0 49152.584 0
179100 274.15 268.65 0 0 0 0 24576.292 24576.292 0 0 0 49152.584 0
180000 274.3 268.925 0 0 0 0 22685.808 22685.808 0 0 0 45371.616 0
180900 274.45 269.2 0 0 0 0 22685.808 22685.808 0 0 0 45371.616 0
181800 274.6 269.475 0 0 0 0 22685.808 22685.808 0 0 0 45371.616 0
182700 274.75 269.75 0 0 0 0 22685.808 22685.808 0 0 0 45371.616 0
183600 274.475 269.475 0 0 0 0 22685.808 22685.808 0 0 0 45371.616 0
184500 274.2 269.2 0 0 0 0 22685.808 22685.808 0 0 0 45371.616 0
185400 273.925 268.925 0 0 0 0 22685.808 22685.808 0 0 0 45371.616 0
186300 273.65 268.65 0 0 0 0 22685.808 22685.808 0 0 0 45371.616 0
187200 273.65 268.65 0 0 0 0 23631.05 23631.05 0 0 0 47262.1 0
188100 273.65 268.65 0 0 0 0 23631.05 23631.05 0 0 0 47262.1 0
189000 273.65 268.65 0 0 0 0 23631.05 23631.05 0 0 0 47262.1 0
189900 273.65 268.65 0 0 0 0 23631.05 23631.05 0 0 0 47262.1 0
190800 273.375 268.5 0 0 76518.97851 0 25521.534 25521.534 5369.624055 0 0 56412.69206 0
191700 273.1 268.35 0 0 64863.76439 0 25521.534 25521.534 4423.428131 0 0 55466.49613 0
192600 272.825 268.2 0 0 63800.70732 0 25521.534 25521.534 4423.428131 0 0 55466.49613 0
193500 272.55 268.05 0 0 64310.08833 0 25521.534 25521.534 4423.428131 0 0 55466.49613 0
194400 272.675 268.325 0 0 35799.13629 0 41590.648 41590.648 4423.428131 0 0 87604.72413 0
195300 272.8 268.6 0 0 35253.38368 0 41590.648 41590.648 4423.428131 0 0 87604.72413 0
196200 272.925 268.875 0 0 35177.06732 0 41590.648 41590.648 4423.428131 0 0 87604.72413 0
197100 273.05 269.15 14 193.5 30156.33118 0 41590.648 41590.648 4423.428131 0 0 87604.72413 0
198000 273.6 269.575 21 289.25 23344.96316 0 52933.552 52933.552 4516.602522 0 0 110383.7065 0
198900 274.15 270 28 385 20693.13267 0 52933.552 52933.552 4576.197627 0 0 110443.3016 0
199800 274.7 270.425 45.75 454 19206.61112 0 52933.552 52933.552 4589.713866 0 0 110456.8179 0
200700 275.25 270.85 63.5 523 17816.59915 0 52933.552 52933.552 4602.30734 0 0 110469.4113 0
201600 276.25 270.35 81.25 592 12024.00931 0 69002.666 69002.666 5017.479158 0 0 143022.8112 0
202500 277.25 269.85 99 661 10479.52449 0 69002.666 69002.666 5141.64956 0 0 143146.9816 0
203400 278.25 269.35 99.5 709.75 9469.980034 0 69002.666 69002.666 5296.511241 0 0 143301.8432 0
204300 279.25 268.85 100 758.5 8271.487739 0 69002.666 69002.666 5455.728839 0 0 143461.0608 0
205200 280.525 270.25 100.5 807.25 7152.862151 0 73728.876 73728.876 5797.231516 0 0 153254.9835 0
206100 281.8 271.65 101 856 6935.480913 0 73728.876 73728.876 6041.651969 0 0 153499.404 0
207000 283.075 273.05 104.25 874.25 6957.597417 0 73728.876 73728.876 6241.170698 0 0 153698.9227 0
207900 284.35 274.45 107.5 892.5 6943.440876 0 73728.876 73728.876 6418.589747 0 0 153876.3417 0
208800 284.5 275.4 110.75 910.75 7011.279851 0 76564.602 76564.602 6707.744899 0 0 159836.9489 0
209700 284.65 276.35 114 929 7004.13537 0 76564.602 76564.602 6868.875987 0 0 159998.08 0
210600 284.8 277.3 115.75 932.25 6985.636635 0 76564.602 76564.602 6985.636635 0 0 160114.8406 0
