"           TIME(S)","              HEAT","            FLOW_G","            FLOW_L","      FLOW_G_WATER","        FLOW_G_AIR","      FLOW_L_WATER","        FLOW_L_AIR"
  0.20000000000E+001,  0.77458812062E-003,  0.54755017745E-010,  0.00000000000E+000,  0.57738261714E-012,  0.87684115110E-015,  0.00000000000E+000,  0.00000000000E+000
  0.40000000000E+001,  0.78090809552E-003,  0.10767089304E-009,  0.00000000000E+000,  0.11353702940E-011,  0.17242327499E-014,  0.00000000000E+000,  0.00000000000E+000
  0.80000000000E+001,  0.79239721259E-003,  0.20386816563E-009,  0.00000000000E+000,  0.21497481954E-011,  0.32647357532E-014,  0.00000000000E+000,  0.00000000000E+000
  0.12000000000E+002,  0.80285628053E-003,  0.29144214904E-009,  0.00000000000E+000,  0.30731913142E-011,  0.46671518641E-014,  0.00000000000E+000,  0.00000000000E+000
  0.20000000000E+002,  0.82045701435E-003,  0.43881767675E-009,  0.00000000000E+000,  0.46272159227E-011,  0.70272481153E-014,  0.00000000000E+000,  0.00000000000E+000
  0.36000000000E+002,  0.84678026460E-003,  0.65924280762E-009,  0.00000000000E+000,  0.69515024760E-011,  0.10557205396E-013,  0.00000000000E+000,  0.00000000000E+000
  0.60000000000E+002,  0.87488549850E-003,  0.89461417441E-009,  0.00000000000E+000,  0.94333625105E-011,  0.14326559462E-013,  0.00000000000E+000,  0.00000000000E+000
  0.10800000000E+003  0.91302948820E-003  0.12141145771E-008  0.00000000000E+000  0.12802270005E-010  0.19443268999E-013  0.00000000000E+000  0.00000000000E+000
  0.20400000000E+003  0.97206849394E-003  0.17087291821E-008  0.00000000000E+000  0.18017528404E-010  0.27364545457E-013  0.00000000000E+000  0.00000000000E+000
  0.30000000000E+003  0.10285963030E-002  0.21823301153E-008  0.00000000000E+000  0.23011096843E-010  0.34949471307E-013  0.00000000000E+000  0.00000000000E+000
  0.49200000000E+003  0.11486826305E-002  0.31883015495E-008  0.00000000000E+000  0.33617501256E-010  0.51061141202E-013  0.00000000000E+000  0.00000000000E+000
  0.68400000000E+003  0.13011085820E-002  0.44647511974E-008  0.00000000000E+000  0.47074918544E-010  0.71505969008E-013  0.00000000000E+000  0.00000000000E+000
  0.87600000000E+003  0.14920113558E-002  0.60628072365E-008  0.00000000000E+000  0.63921789599E-010  0.97103793752E-013  0.00000000000E+000  0.00000000000E+000
  0.92400000000E+003  0.15454623372E-002  0.65102211287E-008  0.00000000000E+000  0.68638234737E-010  0.10427088280E-012  0.00000000000E+000  0.00000000000E+000
  0.97200000000E+003  0.16055746435E-002  0.70133651342E-008  0.00000000000E+000  0.73942038553E-010  0.11233090029E-012  0.00000000000E+000  0.00000000000E+000
  0.10200000000E+004  0.16733628804E-002  0.75807295964E-008  0.00000000000E+000  0.79922653206E-010  0.12141992865E-012  0.00000000000E+000  0.00000000000E+000
  0.10680000000E+004  0.17441234113E-002  0.81729277901E-008  0.00000000000E+000  0.86164863170E-010  0.13090706159E-012  0.00000000000E+000  0.00000000000E+000
  0.10800000000E+004  0.17618953593E-002  0.83216593555E-008  0.00000000000E+000  0.87732576004E-010  0.13328981501E-012  0.00000000000E+000  0.00000000000E+000
  0.10920000000E+004  0.17794877125E-002  0.84688837992E-008  0.00000000000E+000  0.89284391657E-010  0.13564844093E-012  0.00000000000E+000  0.00000000000E+000
  0.11040000000E+004  0.17965451969E-002  0.86116264144E-008  0.00000000000E+000  0.90788956009E-010  0.13793528161E-012  0.00000000000E+000  0.00000000000E+000
  0.11160000000E+004  0.18126181193E-002  0.87461219378E-008  0.00000000000E+000  0.92206583103E-010  0.14009001252E-012  0.00000000000E+000  0.00000000000E+000
  0.11280000000E+004  0.18272201325E-002  0.88682981883E-008  0.00000000000E+000  0.93494352975E-010  0.14204739058E-012  0.00000000000E+000  0.00000000000E+000
  0.11400000000E+004  0.18397862869E-002  0.89734248496E-008  0.00000000000E+000  0.94602409646E-010  0.14373162730E-012  0.00000000000E+000  0.00000000000E+000
  0.11520000000E+004  0.18490212141E-002  0.90506560018E-008  0.00000000000E+000  0.95416438541E-010  0.14496895395E-012  0.00000000000E+000  0.00000000000E+000
  0.11640000000E+004  0.18388752721E-002  0.89656125120E-008  0.00000000000E+000  0.94520068251E-010  0.14360645338E-012  0.00000000000E+000  0.00000000000E+000
  0.11760000000E+004  0.18132299832E-002  0.87507934564E-008  0.00000000000E+000  0.92255826991E-010  0.14016483073E-012  0.00000000000E+000  0.00000000000E+000
  0.11880000000E+004  0.17794418567E-002  0.84677931054E-008  0.00000000000E+000  0.89272902456E-010  0.13563093632E-012  0.00000000000E+000  0.00000000000E+000
  0.12000000000E+004  0.17426151227E-002  0.81593477650E-008  0.00000000000E+000  0.86021731012E-010  0.13068946933E-012  0.00000000000E+000  0.00000000000E+000
  0.12120000000E+004  0.17059287795E-002  0.78520740347E-008  0.00000000000E+000  0.82782859613E-010  0.12576685019E-012  0.00000000000E+000  0.00000000000E+000
  0.12360000000E+004  0.16417048886E-002  0.73141079098E-008  0.00000000000E+000  0.77112217250E-010  0.11714865395E-012  0.00000000000E+000  0.00000000000E+000
  0.12600000000E+004  0.15885936772E-002  0.68691643914E-008  0.00000000000E+000  0.72422002382E-010  0.11002085311E-012  0.00000000000E+000  0.00000000000E+000
  0.12840000000E+004  0.15477520746E-002  0.65269274938E-008  0.00000000000E+000  0.68814363325E-010  0.10453847661E-012  0.00000000000E+000  0.00000000000E+000
  0.13080000000E+004  0.15184031825E-002  0.62808905558E-008  0.00000000000E+000  0.66220764675E-010  0.10059720953E-012  0.00000000000E+000  0.00000000000E+000
  0.13320000000E+004  0.14989661737E-002  0.61178165019E-008  0.00000000000E+000  0.64501702824E-010  0.97984952658E-013  0.00000000000E+000  0.00000000000E+000
  0.13560000000E+004  0.14877417987E-002  0.60234771758E-008  0.00000000000E+000  0.63507209974E-010  0.96473756578E-013  0.00000000000E+000  0.00000000000E+000
  0.13800000000E+004  0.14831580955E-002  0.59847104257E-008  0.00000000000E+000  0.63098544534E-010  0.95852765331E-013  0.00000000000E+000  0.00000000000E+000
  0.14040000000E+004  0.14838488503E-002  0.59900769215E-008  0.00000000000E+000  0.63155119674E-010  0.95938730703E-013  0.00000000000E+000  0.00000000000E+000
  0.14280000000E+004  0.14886634133E-002  0.60299422673E-008  0.00000000000E+000  0.63575372127E-010  0.96577322621E-013  0.00000000000E+000  0.00000000000E+000
  0.14520000000E+004  0.14966486091E-002  0.60963255017E-008  0.00000000000E+000  0.64275167127E-010  0.97640699227E-013  0.00000000000E+000  0.00000000000E+000
  0.14640000000E+004  0.15013300615E-002  0.61352774463E-008  0.00000000000E+000  0.64685787234E-010  0.98264662324E-013  0.00000000000E+000  0.00000000000E+000
  0.14760000000E+004  0.15066003403E-002  0.61791521714E-008  0.00000000000E+000  0.65148300771E-010  0.98967483787E-013  0.00000000000E+000  0.00000000000E+000
  0.14880000000E+004  0.15123688357E-002  0.62271909941E-008  0.00000000000E+000  0.65654709670E-010  0.99737010894E-013  0.00000000000E+000  0.00000000000E+000
  0.15000000000E+004  0.15185545548E-002  0.62787157488E-008  0.00000000000E+000  0.66197864687E-010  0.10056238065E-012  0.00000000000E+000  0.00000000000E+000
  0.15120000000E+004  0.15250855150E-002  0.63331237133E-008  0.00000000000E+000  0.66771411916E-010  0.10143393851E-012  0.00000000000E+000  0.00000000000E+000
  0.15360000000E+004  0.15390735409E-002  0.64496637555E-008  0.00000000000E+000  0.67999925781E-010  0.10330079414E-012  0.00000000000E+000  0.00000000000E+000
  0.15600000000E+004  0.15536579633E-002  0.65711670970E-008  0.00000000000E+000  0.69280753241E-010  0.10524716837E-012  0.00000000000E+000  0.00000000000E+000
  0.15840000000E+004  0.15685877669E-002  0.66955317664E-008  0.00000000000E+000  0.70591735732E-010  0.10723939064E-012  0.00000000000E+000  0.00000000000E+000
  0.16080000000E+004  0.15836837693E-002  0.68212572210E-008  0.00000000000E+000  0.71917055050E-010  0.10925342411E-012  0.00000000000E+000  0.00000000000E+000
  0.16560000000E+004  0.16139083914E-002  0.70728555293E-008  0.00000000000E+000  0.74569224402E-010  0.11328389006E-012  0.00000000000E+000  0.00000000000E+000
  0.17040000000E+004  0.16441937903E-002  0.73248343960E-008  0.00000000000E+000  0.77225374252E-010  0.11732050301E-012  0.00000000000E+000  0.00000000000E+000
  0.17520000000E+004  0.16748058876E-002  0.75794172767E-008  0.00000000000E+000  0.79908941851E-010  0.12139888289E-012  0.00000000000E+000  0.00000000000E+000
  0.18000000000E+004  0.17060297213E-002  0.78389873549E-008  0.00000000000E+000  0.82645046942E-010  0.12555721031E-012  0.00000000000E+000  0.00000000000E+000
