"           TIME(S)","              HEAT","            FLOW_G","            FLOW_L","      FLOW_G_WATER","        FLOW_G_AIR","      FLOW_L_WATER","        FLOW_L_AIR"
  0.72270005859E+005,  0.61854497006E+001,  0.51617455866E-004,  0.00000000000E+000,  0.54404868512E-006,  0.82694601821E-009,  0.00000000000E+000,  0.00000000000E+000
  0.72270017578E+005,  0.61854035979E+001,  0.51617069718E-004,  0.00000000000E+000,  0.54404461683E-006,  0.82693982422E-009,  0.00000000000E+000,  0.00000000000E+000
  0.72270029297E+005,  0.61853595457E+001,  0.51616700745E-004,  0.00000000000E+000,  0.54404072949E-006,  0.82693390881E-009,  0.00000000000E+000,  0.00000000000E+000
  0.72270052734E+005,  0.61852941585E+001,  0.51616153070E-004,  0.00000000000E+000,  0.54403495943E-006,  0.82692513096E-009,  0.00000000000E+000,  0.00000000000E+000
  0.72270099609E+005,  0.61852207773E+001,  0.51615538429E-004,  0.00000000000E+000,  0.54402848386E-006,  0.82691528102E-009,  0.00000000000E+000,  0.00000000000E+000
  0.72270193359E+005,  0.61851550976E+001,  0.51614988268E-004,  0.00000000000E+000,  0.54402268768E-006,  0.82690646456E-009,  0.00000000000E+000,  0.00000000000E+000
  0.72270380859E+005,  0.61850997233E+001,  0.51614524374E-004,  0.00000000000E+000,  0.54401780046E-006,  0.82689903015E-009,  0.00000000000E+000,  0.00000000000E+000
  0.72270755859E+005,  0.61850378261E+001,  0.51614005750E-004,  0.00000000000E+000,  0.54401233681E-006,  0.82689071806E-009,  0.00000000000E+000,  0.00000000000E+000
  0.72270767578E+005,  0.61850359330E+001,  0.51613989888E-004,  0.00000000000E+000,  0.54401216971E-006,  0.82689046384E-009,  0.00000000000E+000,  0.00000000000E+000
  0.72270791016E+005,  0.61850322742E+001,  0.51613959231E-004,  0.00000000000E+000,  0.54401184674E-006,  0.82688997250E-009,  0.00000000000E+000,  0.00000000000E+000
  0.72270837891E+005,  0.61850252829E+001,  0.51613900650E-004,  0.00000000000E+000,  0.54401122960E-006,  0.82688903359E-009,  0.00000000000E+000,  0.00000000000E+000
  0.72270931641E+005,  0.61850119103E+001,  0.51613788597E-004,  0.00000000000E+000,  0.54401004915E-006,  0.82688723766E-009,  0.00000000000E+000,  0.00000000000E+000
  0.72270943359E+005,  0.61850102471E+001,  0.51613774661E-004,  0.00000000000E+000,  0.54400990233E-006,  0.82688701429E-009,  0.00000000000E+000,  0.00000000000E+000
  0.72270966797E+005,  0.61850069464E+001,  0.51613747003E-004,  0.00000000000E+000,  0.54400961096E-006,  0.82688657101E-009,  0.00000000000E+000,  0.00000000000E+000
  0.72271013672E+005,  0.61850004063E+001,  0.51613692201E-004,  0.00000000000E+000,  0.54400903364E-006,  0.82688569267E-009,  0.00000000000E+000,  0.00000000000E+000
  0.72271107422E+005,  0.61849874037E+001,  0.51613583247E-004,  0.00000000000E+000,  0.54400788583E-006,  0.82688394640E-009,  0.00000000000E+000,  0.00000000000E+000
  0.72271201172E+005,  0.61849743967E+001,  0.51613474257E-004,  0.00000000000E+000,  0.54400673765E-006,  0.82688219955E-009,  0.00000000000E+000,  0.00000000000E+000
  0.72271388672E+005,  0.61849482171E+001,  0.51613254888E-004,  0.00000000000E+000,  0.54400442665E-006,  0.82687868360E-009,  0.00000000000E+000,  0.00000000000E+000
  0.72271394531E+005,  0.61849473988E+001,  0.51613248031E-004,  0.00000000000E+000,  0.54400435441E-006,  0.82687857371E-009,  0.00000000000E+000,  0.00000000000E+000
  0.72271406250E+005,  0.61849457616E+001,  0.51613234312E-004,  0.00000000000E+000,  0.54400420989E-006,  0.82687835382E-009,  0.00000000000E+000,  0.00000000000E+000
  0.72271429688E+005,  0.61849424842E+001,  0.51613206849E-004,  0.00000000000E+000,  0.54400392058E-006,  0.82687791367E-009,  0.00000000000E+000,  0.00000000000E+000
  0.72271476562E+005,  0.61849359179E+001,  0.51613151828E-004,  0.00000000000E+000,  0.54400334094E-006,  0.82687703181E-009,  0.00000000000E+000,  0.00000000000E+000
  0.72271570312E+005,  0.61849227465E+001,  0.51613041461E-004,  0.00000000000E+000,  0.54400217825E-006,  0.82687526290E-009,  0.00000000000E+000,  0.00000000000E+000
  0.72271757812E+005,  0.61848963245E+001,  0.51612820062E-004,  0.00000000000E+000,  0.54399984586E-006,  0.82687171442E-009,  0.00000000000E+000,  0.00000000000E+000
  0.72271763672E+005,  0.61848954988E+001,  0.51612813143E-004,  0.00000000000E+000,  0.54399977297E-006,  0.82687160352E-009,  0.00000000000E+000,  0.00000000000E+000
  0.72271775391E+005,  0.61848938470E+001,  0.51612799302E-004,  0.00000000000E+000,  0.54399962716E-006,  0.82687138168E-009,  0.00000000000E+000,  0.00000000000E+000
  0.72271798828E+005,  0.61848905424E+001,  0.51612771612E-004,  0.00000000000E+000,  0.54399933545E-006,  0.82687093788E-009,  0.00000000000E+000,  0.00000000000E+000
  0.72271845703E+005,  0.61848839305E+001,  0.51612716208E-004,  0.00000000000E+000,  0.54399875178E-006,  0.82687004990E-009,  0.00000000000E+000,  0.00000000000E+000
  0.72271939453E+005,  0.61848707037E+001,  0.51612605376E-004,  0.00000000000E+000,  0.54399758420E-006,  0.82686827354E-009,  0.00000000000E+000,  0.00000000000E+000
  0.72272126953E+005,  0.61848442781E+001,  0.51612383948E-004,  0.00000000000E+000,  0.54399525149E-006,  0.82686472459E-009,  0.00000000000E+000,  0.00000000000E+000
  0.72272132812E+005,  0.61848434523E+001,  0.51612377028E-004,  0.00000000000E+000,  0.54399517860E-006,  0.82686461368E-009,  0.00000000000E+000,  0.00000000000E+000
  0.72272144531E+005,  0.61848418009E+001,  0.51612363191E-004,  0.00000000000E+000,  0.54399503282E-006,  0.82686439190E-009,  0.00000000000E+000,  0.00000000000E+000
  0.72272167969E+005,  0.61848384986E+001,  0.51612335520E-004,  0.00000000000E+000,  0.54399474132E-006,  0.82686394841E-009,  0.00000000000E+000,  0.00000000000E+000
  0.72272214844E+005,  0.61848318969E+001,  0.51612280201E-004,  0.00000000000E+000,  0.54399415855E-006,  0.82686306179E-009,  0.00000000000E+000,  0.00000000000E+000
  0.72272308594E+005,  0.61848187067E+001,  0.51612169677E-004,  0.00000000000E+000,  0.54399299420E-006,  0.82686129035E-009,  0.00000000000E+000,  0.00000000000E+000
  0.72272496094E+005,  0.61847923874E+001,  0.51611949138E-004,  0.00000000000E+000,  0.54399067087E-006,  0.82685775566E-009,  0.00000000000E+000,  0.00000000000E+000
  0.72272871094E+005,  0.61847399628E+001,  0.51611509853E-004,  0.00000000000E+000,  0.54398604312E-006,  0.82685071503E-009,  0.00000000000E+000,  0.00000000000E+000
  0.72273246094E+005,  0.61846876947E+001,  0.51611071879E-004,  0.00000000000E+000,  0.54398142916E-006,  0.82684369540E-009,  0.00000000000E+000,  0.00000000000E+000
  0.72273257812E+005,  0.61846860615E+001,  0.51611058194E-004,  0.00000000000E+000,  0.54398128499E-006,  0.82684347606E-009,  0.00000000000E+000,  0.00000000000E+000
  0.72273281250E+005,  0.61846827956E+001,  0.51611030828E-004,  0.00000000000E+000,  0.54398099670E-006,  0.82684303745E-009,  0.00000000000E+000,  0.00000000000E+000
  0.72273328125E+005,  0.61846762662E+001,  0.51610976115E-004,  0.00000000000E+000,  0.54398042031E-006,  0.82684216054E-009,  0.00000000000E+000,  0.00000000000E+000
  0.72273421875E+005,  0.61846632151E+001,  0.51610866755E-004,  0.00000000000E+000,  0.54397926823E-006,  0.82684040778E-009,  0.00000000000E+000,  0.00000000000E+000
  0.72273609375E+005,  0.61846371371E+001,  0.51610648238E-004,  0.00000000000E+000,  0.54397696621E-006,  0.82683690549E-009,  0.00000000000E+000,  0.00000000000E+000
  0.72273984375E+005,  0.61845850263E+001,  0.51610211581E-004,  0.00000000000E+000,  0.54397236613E-006,  0.82682990698E-009,  0.00000000000E+000,  0.00000000000E+000
  0.72273996094E+005,  0.61845833979E+001,  0.51610197936E-004,  0.00000000000E+000,  0.54397222238E-006,  0.82682968828E-009,  0.00000000000E+000,  0.00000000000E+000
  0.72274019531E+005,  0.61845801412E+001,  0.51610170647E-004,  0.00000000000E+000,  0.54397193490E-006,  0.82682925091E-009,  0.00000000000E+000,  0.00000000000E+000
  0.72274066406E+005,  0.61845736284E+001,  0.51610116074E-004,  0.00000000000E+000,  0.54397135998E-006,  0.82682837623E-009,  0.00000000000E+000,  0.00000000000E+000
  0.72274160156E+005,  0.61845606042E+001,  0.51610006940E-004,  0.00000000000E+000,  0.54397021028E-006,  0.82682662708E-009,  0.00000000000E+000,  0.00000000000E+000
  0.72274347656E+005,  0.61845345566E+001,  0.51609788676E-004,  0.00000000000E+000,  0.54396791093E-006,  0.82682312887E-009,  0.00000000000E+000,  0.00000000000E+000
  0.72274722656E+005,  0.61844824363E+001,  0.51609351941E-004,  0.00000000000E+000,  0.54396331002E-006,  0.82681612909E-009,  0.00000000000E+000,  0.00000000000E+000
  0.72274734375E+005,  0.61844808075E+001,  0.51609338292E-004,  0.00000000000E+000,  0.54396316624E-006,  0.82681591034E-009,  0.00000000000E+000,  0.00000000000E+000
  0.72274757812E+005,  0.61844775499E+001,  0.51609310995E-004,  0.00000000000E+000,  0.54396287867E-006,  0.82681547283E-009,  0.00000000000E+000,  0.00000000000E+000
  0.72274804688E+005,  0.61844710340E+001,  0.51609256396E-004,  0.00000000000E+000,  0.54396230349E-006,  0.82681459775E-009,  0.00000000000E+000,  0.00000000000E+000
  0.72274898438E+005,  0.61844580001E+001,  0.51609147180E-004,  0.00000000000E+000,  0.54396115292E-006,  0.82681284729E-009,  0.00000000000E+000,  0.00000000000E+000
  0.72275085938E+005,  0.61844319205E+001,  0.51608928649E-004,  0.00000000000E+000,  0.54395885075E-006,  0.82680934479E-009,  0.00000000000E+000,  0.00000000000E+000
  0.72275460938E+005,  0.61843797019E+001,  0.51608491090E-004,  0.00000000000E+000,  0.54395424117E-006,  0.82680233181E-009,  0.00000000000E+000,  0.00000000000E+000
  0.72275472656E+005,  0.61843780700E+001,  0.51608477416E-004,  0.00000000000E+000,  0.54395409711E-006,  0.82680211265E-009,  0.00000000000E+000,  0.00000000000E+000
  0.72275496094E+005,  0.61843748060E+001,  0.51608450065E-004,  0.00000000000E+000,  0.54395380898E-006,  0.82680167429E-009,  0.00000000000E+000,  0.00000000000E+000
  0.72275542969E+005,  0.61843682770E+001,  0.51608395356E-004,  0.00000000000E+000,  0.54395323264E-006,  0.82680079744E-009,  0.00000000000E+000,  0.00000000000E+000
  0.72275636719E+005,  0.61843552151E+001,  0.51608285905E-004,  0.00000000000E+000,  0.54395207959E-006,  0.82679904321E-009,  0.00000000000E+000,  0.00000000000E+000
  0.72275824219E+005,  0.61843290739E+001,  0.51608066859E-004,  0.00000000000E+000,  0.54394977200E-006,  0.82679553245E-009,  0.00000000000E+000,  0.00000000000E+000
  0.72276199219E+005,  0.61842767195E+001,  0.51607628162E-004,  0.00000000000E+000,  0.54394515042E-006,  0.82678850124E-009,  0.00000000000E+000,  0.00000000000E+000
  0.72276949219E+005,  0.61841717234E+001,  0.51606748362E-004,  0.00000000000E+000,  0.54393588193E-006,  0.82677440025E-009,  0.00000000000E+000,  0.00000000000E+000
  0.72277699219E+005,  0.61840664580E+001,  0.51605866307E-004,  0.00000000000E+000,  0.54392658969E-006,  0.82676026312E-009,  0.00000000000E+000,  0.00000000000E+000
  0.72277705078E+005,  0.61840656356E+001,  0.51605859416E-004,  0.00000000000E+000,  0.54392651709E-006,  0.82676015267E-009,  0.00000000000E+000,  0.00000000000E+000
  0.72277716797E+005,  0.61840639908E+001,  0.51605845633E-004,  0.00000000000E+000,  0.54392637189E-006,  0.82675993177E-009,  0.00000000000E+000,  0.00000000000E+000
  0.72277740234E+005,  0.61840607008E+001,  0.51605818065E-004,  0.00000000000E+000,  0.54392608147E-006,  0.82675948992E-009,  0.00000000000E+000,  0.00000000000E+000
  0.72277787109E+005,  0.61840541197E+001,  0.51605762920E-004,  0.00000000000E+000,  0.54392550053E-006,  0.82675860609E-009,  0.00000000000E+000,  0.00000000000E+000
  0.72277880859E+005,  0.61840409535E+001,  0.51605652595E-004,  0.00000000000E+000,  0.54392433829E-006,  0.82675683787E-009,  0.00000000000E+000,  0.00000000000E+000
  0.72278068359E+005,  0.61840146050E+001,  0.51605431812E-004,  0.00000000000E+000,  0.54392201239E-006,  0.82675329926E-009,  0.00000000000E+000,  0.00000000000E+000
  0.72278443359E+005,  0.61839618468E+001,  0.51604989733E-004,  0.00000000000E+000,  0.54391735519E-006,  0.82674621385E-009,  0.00000000000E+000,  0.00000000000E+000
  0.72279193359E+005,  0.61838561149E+001,  0.51604103771E-004,  0.00000000000E+000,  0.54390802178E-006,  0.82673201410E-009,  0.00000000000E+000,  0.00000000000E+000
  0.72279199219E+005,  0.61838552889E+001,  0.51604096849E-004,  0.00000000000E+000,  0.54390794886E-006,  0.82673190316E-009,  0.00000000000E+000,  0.00000000000E+000
  0.72279210938E+005,  0.61838536367E+001,  0.51604083005E-004,  0.00000000000E+000,  0.54390780302E-006,  0.82673168128E-009,  0.00000000000E+000,  0.00000000000E+000
  0.72279234375E+005,  0.61838503323E+001,  0.51604055316E-004,  0.00000000000E+000,  0.54390751132E-006,  0.82673123749E-009,  0.00000000000E+000,  0.00000000000E+000
  0.72279281250E+005,  0.61838437225E+001,  0.51603999930E-004,  0.00000000000E+000,  0.54390692784E-006,  0.82673034979E-009,  0.00000000000E+000,  0.00000000000E+000
  0.72279375000E+005,  0.61838304996E+001,  0.51603889131E-004,  0.00000000000E+000,  0.54390576060E-006,  0.82672857396E-009,  0.00000000000E+000,  0.00000000000E+000
  0.72279562500E+005,  0.61838040413E+001,  0.51603667428E-004,  0.00000000000E+000,  0.54390342501E-006,  0.82672502063E-009,  0.00000000000E+000,  0.00000000000E+000
  0.72279937500E+005,  0.61837510780E+001,  0.51603223631E-004,  0.00000000000E+000,  0.54389874971E-006,  0.82671790768E-009,  0.00000000000E+000,  0.00000000000E+000
  0.72280687500E+005,  0.61836449899E+001,  0.51602334685E-004,  0.00000000000E+000,  0.54388938486E-006,  0.82670366010E-009,  0.00000000000E+000,  0.00000000000E+000
  0.72280693359E+005,  0.61836441611E+001,  0.51602327740E-004,  0.00000000000E+000,  0.54388931170E-006,  0.82670354879E-009,  0.00000000000E+000,  0.00000000000E+000
  0.72280705078E+005,  0.61836425034E+001,  0.51602313850E-004,  0.00000000000E+000,  0.54388916537E-006,  0.82670332617E-009,  0.00000000000E+000,  0.00000000000E+000
  0.72280728516E+005,  0.61836391878E+001,  0.51602286068E-004,  0.00000000000E+000,  0.54388887269E-006,  0.82670288089E-009,  0.00000000000E+000,  0.00000000000E+000
  0.72280775391E+005,  0.61836325562E+001,  0.51602230499E-004,  0.00000000000E+000,  0.54388828729E-006,  0.82670199026E-009,  0.00000000000E+000,  0.00000000000E+000
  0.72280869141E+005,  0.61836192904E+001,  0.51602119341E-004,  0.00000000000E+000,  0.54388711626E-006,  0.82670020868E-009,  0.00000000000E+000,  0.00000000000E+000
  0.72281056641E+005,  0.61835927496E+001,  0.51601896947E-004,  0.00000000000E+000,  0.54388477339E-006,  0.82669664426E-009,  0.00000000000E+000,  0.00000000000E+000
  0.72281431641E+005,  0.61835396333E+001,  0.51601451869E-004,  0.00000000000E+000,  0.54388008459E-006,  0.82668951078E-009,  0.00000000000E+000,  0.00000000000E+000
  0.72282181641E+005,  0.61834332825E+001,  0.51600560723E-004,  0.00000000000E+000,  0.54387069656E-006,  0.82667522794E-009,  0.00000000000E+000,  0.00000000000E+000
  0.72282187500E+005,  0.61834324516E+001,  0.51600553761E-004,  0.00000000000E+000,  0.54387062322E-006,  0.82667511636E-009,  0.00000000000E+000,  0.00000000000E+000
  0.72282199219E+005,  0.61834307899E+001,  0.51600539836E-004,  0.00000000000E+000,  0.54387047653E-006,  0.82667489318E-009,  0.00000000000E+000,  0.00000000000E+000
  0.72282222656E+005,  0.61834274662E+001,  0.51600511986E-004,  0.00000000000E+000,  0.54387018313E-006,  0.82667444681E-009,  0.00000000000E+000,  0.00000000000E+000
  0.72282269531E+005,  0.61834208184E+001,  0.51600456282E-004,  0.00000000000E+000,  0.54386959630E-006,  0.82667355402E-009,  0.00000000000E+000,  0.00000000000E+000
  0.72282363281E+005,  0.61834075211E+001,  0.51600344860E-004,  0.00000000000E+000,  0.54386842249E-006,  0.82667176820E-009,  0.00000000000E+000,  0.00000000000E+000
  0.72282550781E+005,  0.61833809195E+001,  0.51600121957E-004,  0.00000000000E+000,  0.54386607427E-006,  0.82666819563E-009,  0.00000000000E+000,  0.00000000000E+000
  0.72282925781E+005,  0.61833276913E+001,  0.51599675941E-004,  0.00000000000E+000,  0.54386137558E-006,  0.82666104712E-009,  0.00000000000E+000,  0.00000000000E+000
  0.72283675781E+005,  0.61832211480E+001,  0.51598783182E-004,  0.00000000000E+000,  0.54385197057E-006,  0.82664673844E-009,  0.00000000000E+000,  0.00000000000E+000
  0.72283681641E+005,  0.61832203156E+001,  0.51598776207E-004,  0.00000000000E+000,  0.54385189709E-006,  0.82664662665E-009,  0.00000000000E+000,  0.00000000000E+000
  0.72283693359E+005,  0.61832186508E+001,  0.51598762258E-004,  0.00000000000E+000,  0.54385175013E-006,  0.82664640307E-009,  0.00000000000E+000,  0.00000000000E+000
  0.72283716797E+005,  0.61832153212E+001,  0.51598734358E-004,  0.00000000000E+000,  0.54385145621E-006,  0.82664595591E-009,  0.00000000000E+000,  0.00000000000E+000
  0.72283763672E+005,  0.61832086616E+001,  0.51598678555E-004,  0.00000000000E+000,  0.54385086834E-006,  0.82664506153E-009,  0.00000000000E+000,  0.00000000000E+000
  0.72283857422E+005,  0.61831953411E+001,  0.51598566939E-004,  0.00000000000E+000,  0.54384969249E-006,  0.82664327260E-009,  0.00000000000E+000,  0.00000000000E+000
  0.72284044922E+005,  0.61831686952E+001,  0.51598343664E-004,  0.00000000000E+000,  0.54384734034E-006,  0.82663969407E-009,  0.00000000000E+000,  0.00000000000E+000
  0.72284419922E+005,  0.61831153847E+001,  0.51597896959E-004,  0.00000000000E+000,  0.54384263440E-006,  0.82663253451E-009,  0.00000000000E+000,  0.00000000000E+000
  0.72285169922E+005,  0.61830086992E+001,  0.51597003010E-004,  0.00000000000E+000,  0.54383321684E-006,  0.82661820675E-009,  0.00000000000E+000,  0.00000000000E+000
  0.72286669922E+005,  0.61827951286E+001,  0.51595213438E-004,  0.00000000000E+000,  0.54381436409E-006,  0.82658952441E-009,  0.00000000000E+000,  0.00000000000E+000
  0.72288169922E+005,  0.61825814008E+001,  0.51593422550E-004,  0.00000000000E+000,  0.54379549748E-006,  0.82656082098E-009,  0.00000000000E+000,  0.00000000000E+000
  0.72288181641E+005,  0.61825797310E+001,  0.51593408559E-004,  0.00000000000E+000,  0.54379535008E-006,  0.82656059674E-009,  0.00000000000E+000,  0.00000000000E+000
  0.72288205078E+005,  0.61825763915E+001,  0.51593380575E-004,  0.00000000000E+000,  0.54379505528E-006,  0.82656014824E-009,  0.00000000000E+000,  0.00000000000E+000
  0.72288251953E+005,  0.61825697122E+001,  0.51593324608E-004,  0.00000000000E+000,  0.54379446568E-006,  0.82655925122E-009,  0.00000000000E+000,  0.00000000000E+000
  0.72288345703E+005,  0.61825563531E+001,  0.51593212668E-004,  0.00000000000E+000,  0.54379328642E-006,  0.82655745711E-009,  0.00000000000E+000,  0.00000000000E+000
  0.72288533203E+005,  0.61825296326E+001,  0.51592988769E-004,  0.00000000000E+000,  0.54379092769E-006,  0.82655386857E-009,  0.00000000000E+000,  0.00000000000E+000
  0.72288908203E+005,  0.61824761829E+001,  0.51592540898E-004,  0.00000000000E+000,  0.54378620946E-006,  0.82654669032E-009,  0.00000000000E+000,  0.00000000000E+000
  0.72289658203E+005,  0.61823692526E+001,  0.51591644898E-004,  0.00000000000E+000,  0.54377677030E-006,  0.82653232970E-009,  0.00000000000E+000,  0.00000000000E+000
  0.72291158203E+005,  0.61821552918E+001,  0.51589852058E-004,  0.00000000000E+000,  0.54375788312E-006,  0.82650359499E-009,  0.00000000000E+000,  0.00000000000E+000
  0.72291169922E+005,  0.61821536202E+001,  0.51589838052E-004,  0.00000000000E+000,  0.54375773556E-006,  0.82650337049E-009,  0.00000000000E+000,  0.00000000000E+000
  0.72291193359E+005,  0.61821502770E+001,  0.51589810038E-004,  0.00000000000E+000,  0.54375744045E-006,  0.82650292151E-009,  0.00000000000E+000,  0.00000000000E+000
  0.72291240234E+005,  0.61821435906E+001,  0.51589754011E-004,  0.00000000000E+000,  0.54375685021E-006,  0.82650202353E-009,  0.00000000000E+000,  0.00000000000E+000
  0.72291333984E+005,  0.61821302173E+001,  0.51589641952E-004,  0.00000000000E+000,  0.54375566969E-006,  0.82650022751E-009,  0.00000000000E+000,  0.00000000000E+000
