"           TIME(S)","              HEAT","            FLOW_G","            FLOW_L","      FLOW_G_WATER","        FLOW_G_AIR","      FLOW_L_WATER","        FLOW_L_AIR"
  0.72270005859E+005,  0.52953221249E+002,  0.44201065300E-003,  0.00000000000E+000,  0.46585749616E-005,  0.70813156239E-008,  0.00000000000E+000,  0.00000000000E+000
  0.72270017578E+005,  0.52952820306E+002,  0.44200729477E-003,  0.00000000000E+000,  0.46585395824E-005,  0.70812618447E-008,  0.00000000000E+000,  0.00000000000E+000
  0.72270029297E+005,  0.52952455622E+002,  0.44200424023E-003,  0.00000000000E+000,  0.46585074026E-005,  0.70812129281E-008,  0.00000000000E+000,  0.00000000000E+000
  0.72270052734E+005,  0.52951843276E+002,  0.44199911132E-003,  0.00000000000E+000,  0.46584533691E-005,  0.70811307900E-008,  0.00000000000E+000,  0.00000000000E+000
  0.72270099609E+005,  0.52950938939E+002,  0.44199153673E-003,  0.00000000000E+000,  0.46583735701E-005,  0.70810094801E-008,  0.00000000000E+000,  0.00000000000E+000
  0.72270193359E+005,  0.52949818007E+002,  0.44198214797E-003,  0.00000000000E+000,  0.46582746587E-005,  0.70808591049E-008,  0.00000000000E+000,  0.00000000000E+000
  0.72270380859E+005,  0.52948659540E+002,  0.44197244477E-003,  0.00000000000E+000,  0.46581724347E-005,  0.70807036744E-008,  0.00000000000E+000,  0.00000000000E+000
  0.72270755859E+005,  0.52947562159E+002,  0.44196325314E-003,  0.00000000000E+000,  0.46580756004E-005,  0.70805564091E-008,  0.00000000000E+000,  0.00000000000E+000
  0.72270767578E+005,  0.52947528971E+002,  0.44196297516E-003,  0.00000000000E+000,  0.46580726718E-005,  0.70805519553E-008,  0.00000000000E+000,  0.00000000000E+000
  0.72270791016E+005,  0.52947466436E+002,  0.44196245136E-003,  0.00000000000E+000,  0.46580671536E-005,  0.70805435630E-008,  0.00000000000E+000,  0.00000000000E+000
  0.72270837891E+005,  0.52947353366E+002,  0.44196150429E-003,  0.00000000000E+000,  0.46580571761E-005,  0.70805283882E-008,  0.00000000000E+000,  0.00000000000E+000
  0.72270931641E+005,  0.52947159192E+002,  0.44195987788E-003,  0.00000000000E+000,  0.46580400418E-005,  0.70805023268E-008,  0.00000000000E+000,  0.00000000000E+000
  0.72270943359E+005,  0.52947135391E+002,  0.44195967852E-003,  0.00000000000E+000,  0.46580379416E-005,  0.70804991323E-008,  0.00000000000E+000,  0.00000000000E+000
  0.72270966797E+005,  0.52947089471E+002,  0.44195929390E-003,  0.00000000000E+000,  0.46580338895E-005,  0.70804929690E-008,  0.00000000000E+000,  0.00000000000E+000
  0.72271013672E+005,  0.52947003142E+002,  0.44195857080E-003,  0.00000000000E+000,  0.46580262716E-005,  0.70804813816E-008,  0.00000000000E+000,  0.00000000000E+000
  0.72271107422E+005,  0.52946846181E+002,  0.44195725608E-003,  0.00000000000E+000,  0.46580124210E-005,  0.70804603129E-008,  0.00000000000E+000,  0.00000000000E+000
  0.72271201172E+005,  0.52946700678E+002,  0.44195603733E-003,  0.00000000000E+000,  0.46579995815E-005,  0.70804407815E-008,  0.00000000000E+000,  0.00000000000E+000
  0.72271388672E+005,  0.52946437190E+002,  0.44195383032E-003,  0.00000000000E+000,  0.46579763306E-005,  0.70804054111E-008,  0.00000000000E+000,  0.00000000000E+000
  0.72271394531E+005,  0.52946428982E+002,  0.44195376157E-003,  0.00000000000E+000,  0.46579756063E-005,  0.70804043093E-008,  0.00000000000E+000,  0.00000000000E+000
  0.72271406250E+005,  0.52946412668E+002,  0.44195362492E-003,  0.00000000000E+000,  0.46579741667E-005,  0.70804021193E-008,  0.00000000000E+000,  0.00000000000E+000
  0.72271429688E+005,  0.52946380415E+002,  0.44195335476E-003,  0.00000000000E+000,  0.46579713206E-005,  0.70803977895E-008,  0.00000000000E+000,  0.00000000000E+000
  0.72271476562E+005,  0.52946317203E+002,  0.44195282529E-003,  0.00000000000E+000,  0.46579657426E-005,  0.70803893039E-008,  0.00000000000E+000,  0.00000000000E+000
  0.72271570312E+005,  0.52946194778E+002,  0.44195179984E-003,  0.00000000000E+000,  0.46579549395E-005,  0.70803728691E-008,  0.00000000000E+000,  0.00000000000E+000
  0.72271757812E+005,  0.52945960118E+002,  0.44194983429E-003,  0.00000000000E+000,  0.46579342323E-005,  0.70803413670E-008,  0.00000000000E+000,  0.00000000000E+000
  0.72271763672E+005,  0.52945952794E+002,  0.44194977295E-003,  0.00000000000E+000,  0.46579335861E-005,  0.70803403838E-008,  0.00000000000E+000,  0.00000000000E+000
  0.72271775391E+005,  0.52945938186E+002,  0.44194965058E-003,  0.00000000000E+000,  0.46579322969E-005,  0.70803384227E-008,  0.00000000000E+000,  0.00000000000E+000
  0.72271798828E+005,  0.52945909109E+002,  0.44194940703E-003,  0.00000000000E+000,  0.46579297311E-005,  0.70803345192E-008,  0.00000000000E+000,  0.00000000000E+000
  0.72271845703E+005,  0.52945851452E+002,  0.44194892408E-003,  0.00000000000E+000,  0.46579246433E-005,  0.70803267789E-008,  0.00000000000E+000,  0.00000000000E+000
  0.72271939453E+005,  0.52945737696E+002,  0.44194797124E-003,  0.00000000000E+000,  0.46579146051E-005,  0.70803115075E-008,  0.00000000000E+000,  0.00000000000E+000
  0.72272126953E+005,  0.52945514212E+002,  0.44194609930E-003,  0.00000000000E+000,  0.46578948841E-005,  0.70802815051E-008,  0.00000000000E+000,  0.00000000000E+000
  0.72272132812E+005,  0.52945507232E+002,  0.44194604083E-003,  0.00000000000E+000,  0.46578942682E-005,  0.70802805681E-008,  0.00000000000E+000,  0.00000000000E+000
  0.72272144531E+005,  0.52945493286E+002,  0.44194592402E-003,  0.00000000000E+000,  0.46578930376E-005,  0.70802786960E-008,  0.00000000000E+000,  0.00000000000E+000
  0.72272167969E+005,  0.52945465452E+002,  0.44194569088E-003,  0.00000000000E+000,  0.46578905814E-005,  0.70802749592E-008,  0.00000000000E+000,  0.00000000000E+000
  0.72272214844E+005,  0.52945409980E+002,  0.44194522623E-003,  0.00000000000E+000,  0.46578856864E-005,  0.70802675121E-008,  0.00000000000E+000,  0.00000000000E+000
  0.72272308594E+005,  0.52945299650E+002,  0.44194430209E-003,  0.00000000000E+000,  0.46578759505E-005,  0.70802527005E-008,  0.00000000000E+000,  0.00000000000E+000
  0.72272496094E+005,  0.52945080525E+002,  0.44194246665E-003,  0.00000000000E+000,  0.46578566142E-005,  0.70802232832E-008,  0.00000000000E+000,  0.00000000000E+000
  0.72272871094E+005,  0.52944644599E+002,  0.44193881525E-003,  0.00000000000E+000,  0.46578181467E-005,  0.70801647604E-008,  0.00000000000E+000,  0.00000000000E+000
  0.72273246094E+005,  0.52944209018E+002,  0.44193516673E-003,  0.00000000000E+000,  0.46577797095E-005,  0.70801062838E-008,  0.00000000000E+000,  0.00000000000E+000
  0.72273257812E+005,  0.52944195406E+002,  0.44193505272E-003,  0.00000000000E+000,  0.46577785084E-005,  0.70801044564E-008,  0.00000000000E+000,  0.00000000000E+000
  0.72273281250E+005,  0.52944168184E+002,  0.44193482470E-003,  0.00000000000E+000,  0.46577761062E-005,  0.70801008018E-008,  0.00000000000E+000,  0.00000000000E+000
  0.72273328125E+005,  0.52944113738E+002,  0.44193436865E-003,  0.00000000000E+000,  0.46577713017E-005,  0.70800934925E-008,  0.00000000000E+000,  0.00000000000E+000
  0.72273421875E+005,  0.52944004825E+002,  0.44193345637E-003,  0.00000000000E+000,  0.46577616908E-005,  0.70800788709E-008,  0.00000000000E+000,  0.00000000000E+000
  0.72273609375E+005,  0.52943786791E+002,  0.44193163008E-003,  0.00000000000E+000,  0.46577424509E-005,  0.70800496001E-008,  0.00000000000E+000,  0.00000000000E+000
  0.72273984375E+005,  0.52943349449E+002,  0.44192796681E-003,  0.00000000000E+000,  0.46577038583E-005,  0.70799908870E-008,  0.00000000000E+000,  0.00000000000E+000
  0.72273996094E+005,  0.52943335781E+002,  0.44192785233E-003,  0.00000000000E+000,  0.46577026522E-005,  0.70799890521E-008,  0.00000000000E+000,  0.00000000000E+000
  0.72274019531E+005,  0.52943308439E+002,  0.44192762331E-003,  0.00000000000E+000,  0.46577002395E-005,  0.70799853815E-008,  0.00000000000E+000,  0.00000000000E+000
  0.72274066406E+005,  0.52943253735E+002,  0.44192716509E-003,  0.00000000000E+000,  0.46576954122E-005,  0.70799780375E-008,  0.00000000000E+000,  0.00000000000E+000
  0.72274160156E+005,  0.52943144236E+002,  0.44192624791E-003,  0.00000000000E+000,  0.46576857497E-005,  0.70799633373E-008,  0.00000000000E+000,  0.00000000000E+000
  0.72274347656E+005,  0.52942924862E+002,  0.44192441039E-003,  0.00000000000E+000,  0.46576663913E-005,  0.70799338864E-008,  0.00000000000E+000,  0.00000000000E+000
  0.72274722656E+005,  0.52942484550E+002,  0.44192072225E-003,  0.00000000000E+000,  0.46576275368E-005,  0.70798747748E-008,  0.00000000000E+000,  0.00000000000E+000
  0.72274734375E+005,  0.52942470789E+002,  0.44192060699E-003,  0.00000000000E+000,  0.46576263224E-005,  0.70798729274E-008,  0.00000000000E+000,  0.00000000000E+000
  0.72274757812E+005,  0.52942443260E+002,  0.44192037640E-003,  0.00000000000E+000,  0.46576238932E-005,  0.70798692317E-008,  0.00000000000E+000,  0.00000000000E+000
  0.72274804688E+005,  0.52942388179E+002,  0.44191991503E-003,  0.00000000000E+000,  0.46576190326E-005,  0.70798618370E-008,  0.00000000000E+000,  0.00000000000E+000
  0.72274898438E+005,  0.52942277918E+002,  0.44191899146E-003,  0.00000000000E+000,  0.46576093029E-005,  0.70798470346E-008,  0.00000000000E+000,  0.00000000000E+000
  0.72275085938E+005,  0.52942057010E+002,  0.44191714110E-003,  0.00000000000E+000,  0.46575898093E-005,  0.70798173779E-008,  0.00000000000E+000,  0.00000000000E+000
  0.72275460938E+005,  0.52941613733E+002,  0.44191342812E-003,  0.00000000000E+000,  0.46575506930E-005,  0.70797578681E-008,  0.00000000000E+000,  0.00000000000E+000
  0.72275472656E+005,  0.52941599879E+002,  0.44191331208E-003,  0.00000000000E+000,  0.46575494705E-005,  0.70797560082E-008,  0.00000000000E+000,  0.00000000000E+000
  0.72275496094E+005,  0.52941572165E+002,  0.44191307994E-003,  0.00000000000E+000,  0.46575470250E-005,  0.70797522877E-008,  0.00000000000E+000,  0.00000000000E+000
  0.72275542969E+005,  0.52941516716E+002,  0.44191261549E-003,  0.00000000000E+000,  0.46575421319E-005,  0.70797448437E-008,  0.00000000000E+000,  0.00000000000E+000
  0.72275636719E+005,  0.52941405728E+002,  0.44191168584E-003,  0.00000000000E+000,  0.46575323380E-005,  0.70797299437E-008,  0.00000000000E+000,  0.00000000000E+000
  0.72275824219E+005,  0.52941183411E+002,  0.44190982366E-003,  0.00000000000E+000,  0.46575127200E-005,  0.70797000977E-008,  0.00000000000E+000,  0.00000000000E+000
  0.72276199219E+005,  0.52940737511E+002,  0.44190608872E-003,  0.00000000000E+000,  0.46574733723E-005,  0.70796402360E-008,  0.00000000000E+000,  0.00000000000E+000
  0.72276949219E+005,  0.52939841472E+002,  0.44189858333E-003,  0.00000000000E+000,  0.46573943030E-005,  0.70795199435E-008,  0.00000000000E+000,  0.00000000000E+000
  0.72277699219E+005,  0.52938941914E+002,  0.44189104846E-003,  0.00000000000E+000,  0.46573149231E-005,  0.70793991785E-008,  0.00000000000E+000,  0.00000000000E+000
  0.72277705078E+005,  0.52938934886E+002,  0.44189098960E-003,  0.00000000000E+000,  0.46573143029E-005,  0.70793982350E-008,  0.00000000000E+000,  0.00000000000E+000
  0.72277716797E+005,  0.52938920829E+002,  0.44189087185E-003,  0.00000000000E+000,  0.46573130625E-005,  0.70793963479E-008,  0.00000000000E+000,  0.00000000000E+000
  0.72277740234E+005,  0.52938892712E+002,  0.44189063634E-003,  0.00000000000E+000,  0.46573105813E-005,  0.70793925732E-008,  0.00000000000E+000,  0.00000000000E+000
  0.72277787109E+005,  0.52938836464E+002,  0.44189016520E-003,  0.00000000000E+000,  0.46573056178E-005,  0.70793850220E-008,  0.00000000000E+000,  0.00000000000E+000
  0.72277880859E+005,  0.52938723918E+002,  0.44188922248E-003,  0.00000000000E+000,  0.46572956864E-005,  0.70793699127E-008,  0.00000000000E+000,  0.00000000000E+000
  0.72278068359E+005,  0.52938498623E+002,  0.44188733537E-003,  0.00000000000E+000,  0.46572758056E-005,  0.70793396670E-008,  0.00000000000E+000,  0.00000000000E+000
  0.72278443359E+005,  0.52938047314E+002,  0.44188355513E-003,  0.00000000000E+000,  0.46572359807E-005,  0.70792790792E-008,  0.00000000000E+000,  0.00000000000E+000
  0.72279193359E+005,  0.52937142324E+002,  0.44187597476E-003,  0.00000000000E+000,  0.46571561215E-005,  0.70791575851E-008,  0.00000000000E+000,  0.00000000000E+000
  0.72279199219E+005,  0.52937135254E+002,  0.44187591554E-003,  0.00000000000E+000,  0.46571554976E-005,  0.70791566359E-008,  0.00000000000E+000,  0.00000000000E+000
  0.72279210938E+005,  0.52937121112E+002,  0.44187579709E-003,  0.00000000000E+000,  0.46571542497E-005,  0.70791547374E-008,  0.00000000000E+000,  0.00000000000E+000
  0.72279234375E+005,  0.52937092827E+002,  0.44187556017E-003,  0.00000000000E+000,  0.46571517537E-005,  0.70791509402E-008,  0.00000000000E+000,  0.00000000000E+000
  0.72279281250E+005,  0.52937036249E+002,  0.44187508626E-003,  0.00000000000E+000,  0.46571467610E-005,  0.70791433445E-008,  0.00000000000E+000,  0.00000000000E+000
  0.72279375000E+005,  0.52936923054E+002,  0.44187413812E-003,  0.00000000000E+000,  0.46571367724E-005,  0.70791281483E-008,  0.00000000000E+000,  0.00000000000E+000
  0.72279562500E+005,  0.52936696535E+002,  0.44187224075E-003,  0.00000000000E+000,  0.46571167836E-005,  0.70790977382E-008,  0.00000000000E+000,  0.00000000000E+000
  0.72279937500E+005,  0.52936243011E+002,  0.44186844195E-003,  0.00000000000E+000,  0.46570767632E-005,  0.70790368531E-008,  0.00000000000E+000,  0.00000000000E+000
  0.72280687500E+005,  0.52935334359E+002,  0.44186083092E-003,  0.00000000000E+000,  0.46569965808E-005,  0.70789148673E-008,  0.00000000000E+000,  0.00000000000E+000
  0.72280693359E+005,  0.52935327260E+002,  0.44186077146E-003,  0.00000000000E+000,  0.46569959544E-005,  0.70789139143E-008,  0.00000000000E+000,  0.00000000000E+000
  0.72280705078E+005,  0.52935313062E+002,  0.44186065253E-003,  0.00000000000E+000,  0.46569947015E-005,  0.70789120082E-008,  0.00000000000E+000,  0.00000000000E+000
  0.72280728516E+005,  0.52935284664E+002,  0.44186041466E-003,  0.00000000000E+000,  0.46569921956E-005,  0.70789081958E-008,  0.00000000000E+000,  0.00000000000E+000
  0.72280775391E+005,  0.52935227861E+002,  0.44185993887E-003,  0.00000000000E+000,  0.46569871831E-005,  0.70789005701E-008,  0.00000000000E+000,  0.00000000000E+000
  0.72280869141E+005,  0.52935114233E+002,  0.44185898710E-003,  0.00000000000E+000,  0.46569771562E-005,  0.70788853156E-008,  0.00000000000E+000,  0.00000000000E+000
  0.72281056641E+005,  0.52934886885E+002,  0.44185708279E-003,  0.00000000000E+000,  0.46569570943E-005,  0.70788547943E-008,  0.00000000000E+000,  0.00000000000E+000
  0.72281431641E+005,  0.52934431859E+002,  0.44185327141E-003,  0.00000000000E+000,  0.46569169414E-005,  0.70787937076E-008,  0.00000000000E+000,  0.00000000000E+000
  0.72282181641E+005,  0.52933520705E+002,  0.44184563942E-003,  0.00000000000E+000,  0.46568365382E-005,  0.70786713859E-008,  0.00000000000E+000,  0.00000000000E+000
  0.72282187500E+005,  0.52933513587E+002,  0.44184557980E-003,  0.00000000000E+000,  0.46568359101E-005,  0.70786704303E-008,  0.00000000000E+000,  0.00000000000E+000
  0.72282199219E+005,  0.52933499349E+002,  0.44184546054E-003,  0.00000000000E+000,  0.46568346537E-005,  0.70786685190E-008,  0.00000000000E+000,  0.00000000000E+000
  0.72282222656E+005,  0.52933470874E+002,  0.44184522203E-003,  0.00000000000E+000,  0.46568321410E-005,  0.70786646962E-008,  0.00000000000E+000,  0.00000000000E+000
  0.72282269531E+005,  0.52933413919E+002,  0.44184474496E-003,  0.00000000000E+000,  0.46568271151E-005,  0.70786570500E-008,  0.00000000000E+000,  0.00000000000E+000
  0.72282363281E+005,  0.52933299992E+002,  0.44184379069E-003,  0.00000000000E+000,  0.46568170618E-005,  0.70786417554E-008,  0.00000000000E+000,  0.00000000000E+000
  0.72282550781E+005,  0.52933072076E+002,  0.44184188162E-003,  0.00000000000E+000,  0.46567969498E-005,  0.70786111579E-008,  0.00000000000E+000,  0.00000000000E+000
  0.72282925781E+005,  0.52932616014E+002,  0.44183806156E-003,  0.00000000000E+000,  0.46567567054E-005,  0.70785499320E-008,  0.00000000000E+000,  0.00000000000E+000
  0.72283675781E+005,  0.52931703113E+002,  0.44183041494E-003,  0.00000000000E+000,  0.46566761481E-005,  0.70784273758E-008,  0.00000000000E+000,  0.00000000000E+000
  0.72283681641E+005,  0.52931695981E+002,  0.44183035520E-003,  0.00000000000E+000,  0.46566755187E-005,  0.70784264184E-008,  0.00000000000E+000,  0.00000000000E+000
  0.72283693359E+005,  0.52931681716E+002,  0.44183023572E-003,  0.00000000000E+000,  0.46566742600E-005,  0.70784245034E-008,  0.00000000000E+000,  0.00000000000E+000
  0.72283716797E+005,  0.52931653187E+002,  0.44182999675E-003,  0.00000000000E+000,  0.46566717424E-005,  0.70784206733E-008,  0.00000000000E+000,  0.00000000000E+000
  0.72283763672E+005,  0.52931596125E+002,  0.44182951879E-003,  0.00000000000E+000,  0.46566667071E-005,  0.70784130128E-008,  0.00000000000E+000,  0.00000000000E+000
  0.72283857422E+005,  0.52931481989E+002,  0.44182856277E-003,  0.00000000000E+000,  0.46566566354E-005,  0.70783976903E-008,  0.00000000000E+000,  0.00000000000E+000
  0.72284044922E+005,  0.52931253674E+002,  0.44182665036E-003,  0.00000000000E+000,  0.46566364882E-005,  0.70783670391E-008,  0.00000000000E+000,  0.00000000000E+000
  0.72284419922E+005,  0.52930796879E+002,  0.44182282416E-003,  0.00000000000E+000,  0.46565961792E-005,  0.70783057149E-008,  0.00000000000E+000,  0.00000000000E+000
  0.72285169922E+005,  0.52929882727E+002,  0.44181516706E-003,  0.00000000000E+000,  0.46565155115E-005,  0.70781829908E-008,  0.00000000000E+000,  0.00000000000E+000
  0.72286669922E+005,  0.52928052700E+002,  0.44179983842E-003,  0.00000000000E+000,  0.46563540240E-005,  0.70779373114E-008,  0.00000000000E+000,  0.00000000000E+000
  0.72288169922E+005,  0.52926221328E+002,  0.44178449852E-003,  0.00000000000E+000,  0.46561924179E-005,  0.70776914515E-008,  0.00000000000E+000,  0.00000000000E+000
  0.72288181641E+005,  0.52926207020E+002,  0.44178437868E-003,  0.00000000000E+000,  0.46561911554E-005,  0.70776895307E-008,  0.00000000000E+000,  0.00000000000E+000
  0.72288205078E+005,  0.52926178404E+002,  0.44178413898E-003,  0.00000000000E+000,  0.46561886302E-005,  0.70776856890E-008,  0.00000000000E+000,  0.00000000000E+000
  0.72288251953E+005,  0.52926121172E+002,  0.44178365959E-003,  0.00000000000E+000,  0.46561835798E-005,  0.70776780056E-008,  0.00000000000E+000,  0.00000000000E+000
  0.72288345703E+005,  0.52926006701E+002,  0.44178270077E-003,  0.00000000000E+000,  0.46561734786E-005,  0.70776626381E-008,  0.00000000000E+000,  0.00000000000E+000
  0.72288533203E+005,  0.52925777740E+002,  0.44178078295E-003,  0.00000000000E+000,  0.46561532744E-005,  0.70776319003E-008,  0.00000000000E+000,  0.00000000000E+000
  0.72288908203E+005,  0.52925319746E+002,  0.44177694671E-003,  0.00000000000E+000,  0.46561128594E-005,  0.70775704149E-008,  0.00000000000E+000,  0.00000000000E+000
  0.72289658203E+005,  0.52924403493E+002,  0.44176927201E-003,  0.00000000000E+000,  0.46560320064E-005,  0.70774474089E-008,  0.00000000000E+000,  0.00000000000E+000
  0.72291158203E+005,  0.52922570135E+002,  0.44175391547E-003,  0.00000000000E+000,  0.46558702250E-005,  0.70772012824E-008,  0.00000000000E+000,  0.00000000000E+000
  0.72291169922E+005,  0.52922555812E+002,  0.44175379550E-003,  0.00000000000E+000,  0.46558689611E-005,  0.70771993595E-008,  0.00000000000E+000,  0.00000000000E+000
  0.72291193359E+005,  0.52922527165E+002,  0.44175355555E-003,  0.00000000000E+000,  0.46558664333E-005,  0.70771955138E-008,  0.00000000000E+000,  0.00000000000E+000
  0.72291240234E+005,  0.52922469872E+002,  0.44175307565E-003,  0.00000000000E+000,  0.46558613775E-005,  0.70771878221E-008,  0.00000000000E+000,  0.00000000000E+000
  0.72291333984E+005,  0.52922355281E+002,  0.44175211581E-003,  0.00000000000E+000,  0.46558512656E-005,  0.70771724384E-008,  0.00000000000E+000,  0.00000000000E+000
