"           TIME(S)","              HEAT","            FLOW_G","            FLOW_L","      FLOW_G_WATER","        FLOW_G_AIR","      FLOW_L_WATER","        FLOW_L_AIR"
  0.20000000000E+001,  0.52590057656E-001,  0.37294321895E-008,  0.00000000000E+000,  0.39326197649E-010,  0.59722739903E-013,  0.00000000000E+000,  0.00000000000E+000
  0.40000000000E+001,  0.53021351791E-001,  0.73407272555E-008,  0.00000000000E+000,  0.77406558639E-010,  0.11755380043E-012,  0.00000000000E+000,  0.00000000000E+000
  0.80000000000E+001,  0.53808476830E-001,  0.13931550962E-007,  0.00000000000E+000,  0.14690517597E-009,  0.22309924850E-012,  0.00000000000E+000,  0.00000000000E+000
  0.12000000000E+002,  0.54527446893E-001,  0.19951792413E-007,  0.00000000000E+000,  0.21038685208E-009,  0.31950784003E-012,  0.00000000000E+000,  0.00000000000E+000
  0.20000000000E+002,  0.55740417920E-001,  0.30108862634E-007,  0.00000000000E+000,  0.31748954039E-009,  0.48216488123E-012,  0.00000000000E+000,  0.00000000000E+000
  0.36000000000E+002,  0.57530926393E-001,  0.45103219796E-007,  0.00000000000E+000,  0.47559824807E-009,  0.72228927473E-012,  0.00000000000E+000,  0.00000000000E+000
  0.60000000000E+002,  0.59333122791E-001,  0.60197610880E-007,  0.00000000000E+000,  0.63476002172E-009,  0.96401833051E-012,  0.00000000000E+000,  0.00000000000E+000
  0.10800000000E+003  0.61365956662E-001  0.77229376877E-007  0.00000000000E+000  0.81434820232E-009  0.12367768543E-011  0.00000000000E+000  0.00000000000E+000
  0.20400000000E+003  0.63704012266E-001  0.96829383540E-007  0.00000000000E+000  0.10210139210E-008  0.15506699770E-011  0.00000000000E+000  0.00000000000E+000
  0.30000000000E+003  0.65645774397E-001  0.11311164199E-006  0.00000000000E+000  0.11926944901E-008  0.18114337538E-011  0.00000000000E+000  0.00000000000E+000
  0.49200000000E+003  0.69766279469E-001  0.14766023009E-006  0.00000000000E+000  0.15569689533E-008  0.23647486545E-011  0.00000000000E+000  0.00000000000E+000
  0.68400000000E+003  0.74952954821E-001  0.19113506172E-006  0.00000000000E+000  0.20153471664E-008  0.30610451973E-011  0.00000000000E+000  0.00000000000E+000
  0.87600000000E+003  0.81629575134E-001  0.24708425392E-006  0.00000000000E+000  0.26052278019E-008  0.39571691941E-011  0.00000000000E+000  0.00000000000E+000
  0.92400000000E+003  0.83429360237E-001  0.26216529061E-006  0.00000000000E+000  0.27642252902E-008  0.41987256095E-011  0.00000000000E+000  0.00000000000E+000
  0.97200000000E+003  0.85404901051E-001  0.27871783199E-006  0.00000000000E+000  0.29387346599E-008  0.44638551290E-011  0.00000000000E+000  0.00000000000E+000
  0.10200000000E+004  0.87599895855E-001  0.29710774431E-006  0.00000000000E+000  0.31326125146E-008  0.47584191444E-011  0.00000000000E+000  0.00000000000E+000
  0.10680000000E+004  0.90002484432E-001  0.31723574565E-006  0.00000000000E+000  0.33448114066E-008  0.50808284806E-011  0.00000000000E+000  0.00000000000E+000
  0.10800000000E+004  0.90615645216E-001  0.32237252386E-006  0.00000000000E+000  0.33989652488E-008  0.51631100072E-011  0.00000000000E+000  0.00000000000E+000
  0.10920000000E+004  0.91240354029E-001  0.32760598984E-006  0.00000000000E+000  0.34541382015E-008  0.52469406347E-011  0.00000000000E+000  0.00000000000E+000
  0.11040000000E+004  0.91874802506E-001  0.33292100353E-006  0.00000000000E+000  0.35101706423E-008  0.53320778487E-011  0.00000000000E+000  0.00000000000E+000
  0.11160000000E+004  0.92515956570E-001  0.33829216294E-006  0.00000000000E+000  0.35667947675E-008  0.54181147422E-011  0.00000000000E+000  0.00000000000E+000
  0.11280000000E+004  0.93159273799E-001  0.34368143712E-006  0.00000000000E+000  0.36236096404E-008  0.55044420968E-011  0.00000000000E+000  0.00000000000E+000
  0.11400000000E+004  0.93798520411E-001  0.34903663486E-006  0.00000000000E+000  0.36800650509E-008  0.55902238490E-011  0.00000000000E+000  0.00000000000E+000
  0.11520000000E+004  0.94424978076E-001  0.35428476290E-006  0.00000000000E+000  0.37353915000E-008  0.56742906835E-011  0.00000000000E+000  0.00000000000E+000
  0.11640000000E+004  0.95011566214E-001  0.35919909204E-006  0.00000000000E+000  0.37871988046E-008  0.57530103446E-011  0.00000000000E+000  0.00000000000E+000
  0.11760000000E+004  0.95511951254E-001  0.36339169893E-006  0.00000000000E+000  0.38313974977E-008  0.58201683207E-011  0.00000000000E+000  0.00000000000E+000
  0.11880000000E+004  0.95877878017E-001  0.36645857111E-006  0.00000000000E+000  0.38637285424E-008  0.58692925650E-011  0.00000000000E+000  0.00000000000E+000
  0.12000000000E+004  0.96076773823E-001  0.36812699591E-006  0.00000000000E+000  0.38813170792E-008  0.58960146183E-011  0.00000000000E+000  0.00000000000E+000
  0.12120000000E+004  0.96099020742E-001  0.36831644713E-006  0.00000000000E+000  0.38833142546E-008  0.58990448783E-011  0.00000000000E+000  0.00000000000E+000
  0.12360000000E+004  0.95587191608E-001  0.36403759664E-006  0.00000000000E+000  0.38382064762E-008  0.58304948948E-011  0.00000000000E+000  0.00000000000E+000
  0.12600000000E+004  0.94730854188E-001  0.35687439463E-006  0.00000000000E+000  0.37626914871E-008  0.57157439381E-011  0.00000000000E+000  0.00000000000E+000
  0.12840000000E+004  0.93721013698E-001  0.34842601624E-006  0.00000000000E+000  0.36736275799E-008  0.55804093831E-011  0.00000000000E+000  0.00000000000E+000
  0.13080000000E+004  0.92701468381E-001  0.33989639608E-006  0.00000000000E+000  0.35837066586E-008  0.54437763662E-011  0.00000000000E+000  0.00000000000E+000
  0.13320000000E+004  0.91767266318E-001  0.33208130976E-006  0.00000000000E+000  0.35013180016E-008  0.53185913238E-011  0.00000000000E+000  0.00000000000E+000
  0.13560000000E+004  0.90972978867E-001  0.32543764429E-006  0.00000000000E+000  0.34312783932E-008  0.52121720256E-011  0.00000000000E+000  0.00000000000E+000
  0.13800000000E+004  0.90343538672E-001  0.32017414019E-006  0.00000000000E+000  0.33757886329E-008  0.51278613932E-011  0.00000000000E+000  0.00000000000E+000
  0.14040000000E+004  0.89884132815E-001  0.31633422189E-006  0.00000000000E+000  0.33353066852E-008  0.50663544322E-011  0.00000000000E+000  0.00000000000E+000
  0.14280000000E+004  0.89587882283E-001  0.31386029345E-006  0.00000000000E+000  0.33092254746E-008  0.50267281689E-011  0.00000000000E+000  0.00000000000E+000
  0.14520000000E+004  0.89441245131E-001  0.31263897585E-006  0.00000000000E+000  0.32963497879E-008  0.50071662505E-011  0.00000000000E+000  0.00000000000E+000
  0.14640000000E+004  0.89403360890E-001  0.31232498438E-006  0.00000000000E+000  0.32930395364E-008  0.50021372920E-011  0.00000000000E+000  0.00000000000E+000
  0.14760000000E+004  0.89398770827E-001  0.31228974215E-006  0.00000000000E+000  0.32926679801E-008  0.50015733095E-011  0.00000000000E+000  0.00000000000E+000
  0.14880000000E+004  0.89425239030E-001  0.31251452935E-006  0.00000000000E+000  0.32950377667E-008  0.50051744431E-011  0.00000000000E+000  0.00000000000E+000
  0.15000000000E+004  0.89480490041E-001  0.31298029507E-006  0.00000000000E+000  0.32999480520E-008  0.50126355338E-011  0.00000000000E+000  0.00000000000E+000
  0.15120000000E+004  0.89562253235E-001  0.31366802906E-006  0.00000000000E+000  0.33071984193E-008  0.50236520766E-011  0.00000000000E+000  0.00000000000E+000
  0.15360000000E+004  0.89814650694E-001  0.31578755340E-006  0.00000000000E+000  0.33295432900E-008  0.50576033279E-011  0.00000000000E+000  0.00000000000E+000
  0.15600000000E+004  0.90140362278E-001  0.31852088700E-006  0.00000000000E+000  0.33583591415E-008  0.51013865108E-011  0.00000000000E+000  0.00000000000E+000
  0.15840000000E+004  0.90525743497E-001  0.32175379453E-006  0.00000000000E+000  0.33924416248E-008  0.51531718648E-011  0.00000000000E+000  0.00000000000E+000
  0.16080000000E+004  0.90959125948E-001  0.32538858486E-006  0.00000000000E+000  0.34307608104E-008  0.52113946332E-011  0.00000000000E+000  0.00000000000E+000
  0.16560000000E+004  0.91952863149E-001  0.33372122292E-006  0.00000000000E+000  0.35186059167E-008  0.53448685423E-011  0.00000000000E+000  0.00000000000E+000
  0.17040000000E+004  0.93033430313E-001  0.34278083849E-006  0.00000000000E+000  0.36141144310E-008  0.54899880118E-011  0.00000000000E+000  0.00000000000E+000
  0.17520000000E+004  0.94179575126E-001  0.35238950227E-006  0.00000000000E+000  0.37154104483E-008  0.56439032340E-011  0.00000000000E+000  0.00000000000E+000
  0.18000000000E+004  0.95382180605E-001  0.36247088595E-006  0.00000000000E+000  0.38216891905E-008  0.58053918125E-011  0.00000000000E+000  0.00000000000E+000
